       0.77000       0.00274       0.00137
       0.87000       0.00616       0.00205
       0.97000       2.54013       0.04169
       1.07000       2.58598       0.04207
       1.17000       2.70231       0.04300
       1.27000       2.95140       0.04494
       1.37000       3.24086       0.04709
       1.47000       3.87999       0.05153
       1.57000       5.15622       0.05940
       1.67000      17.64611       0.10989
       1.77000      78.81932       0.23224
       1.87000     160.73990       0.33165
       1.97000     205.42279       0.37493
       2.07000     214.22293       0.38287
       2.17000     215.50462       0.38402
       2.27000     214.10864       0.38277
       2.37000     214.29341       0.38294
       2.47000     211.07034       0.38005
       2.57000     206.86325       0.37624
       2.67000     206.03456       0.37549
       2.77000     205.88196       0.37535
       2.87000     206.05577       0.37551
       2.97000     204.91914       0.37447
       3.07000     205.81216       0.37528
       3.17000     204.47435       0.37406
       3.27000     203.43626       0.37311
       3.37000     203.34251       0.37303
       3.47000     205.06558       0.37460
       3.57000     207.78775       0.37708
       3.67000     209.58609       0.37871
       3.77000     209.95357       0.37904
       3.87000     207.45381       0.37678
       3.97000     216.27310       0.38470
       4.07000     216.38600       0.38480
       4.17000     219.19507       0.38729
       4.27000     222.03835       0.38980
       4.37000     224.00298       0.39152
       4.47000     226.37340       0.39358
       4.57000     228.88000       0.39576
       4.67000     229.90440       0.39664
       4.77000     232.35899       0.39875
       4.87000     232.74904       0.39909
       4.97000     232.98102       0.39929
       5.07000     232.82158       0.39915
       5.17000     231.36539       0.39790
       5.27000     230.26572       0.39695
       5.37000     230.05016       0.39677
       5.47000     228.19911       0.39517
       5.57000     227.85080       0.39487
       5.67000     226.53079       0.39372
       5.77000     224.17131       0.39166
       5.87000     224.29860       0.39178
       5.97000     222.86772       0.39052
       6.07000     221.87685       0.38965
       6.17000     219.64807       0.38769
       6.27000     219.66107       0.38770
       6.37000     218.91930       0.38705
       6.47000     216.90129       0.38526
       6.57000     215.46425       0.38398
       6.67000     213.94373       0.38263
       6.77000     213.36891       0.38211
       6.87000     214.67183       0.38328
       6.97000     213.02539       0.38180
       7.07000     213.10204       0.38187
       7.17000     212.00441       0.38089
       7.27000     213.19374       0.38195
       7.37000     211.30232       0.38026
       7.47000     210.84521       0.37984
       7.57000     211.12440       0.38010
       7.67000     210.35320       0.37940
       7.77000     209.43280       0.37857
       7.87000     209.41980       0.37856
       7.97000     207.47296       0.37679
       8.07000     208.11758       0.37738
       8.17000     208.31055       0.37755
       8.27000     208.74509       0.37795
       8.37000     208.22638       0.37748
       8.47000     208.17369       0.37743
       8.57000     206.83519       0.37622
       8.67000     206.23438       0.37567
       8.77000     207.30257       0.37664
       8.87000     204.85551       0.37441
       8.97000     206.31239       0.37574
       9.07000     207.08427       0.37644
       9.17000     205.04095       0.37458
       9.27000     205.96066       0.37542
       9.37000     205.62193       0.37511
       9.47000     206.36029       0.37578
       9.57000     205.00606       0.37455
       9.67000     203.53139       0.37320
       9.77000     203.78868       0.37343
       9.87000     203.01747       0.37273
       9.97000     203.52385       0.37319
      10.07000     202.81424       0.37254
      10.17000     201.62355       0.37145
      10.27000     201.75014       0.37156
      10.37000     201.61124       0.37143
      10.47000     201.14249       0.37100
      10.57000     201.68924       0.37151
      10.67000     202.00334       0.37179
      10.77000     202.07520       0.37186
      10.87000     200.86534       0.37075
      10.97000     200.69153       0.37059
      11.07000     200.12151       0.37006
      11.17000     202.03003       0.37182
      11.27000     199.35030       0.36935
      11.37000     200.36238       0.37028
      11.47000     200.35417       0.37027
      11.57000     201.44699       0.37128
      11.67000     202.15799       0.37194
      11.77000     201.59412       0.37142
      11.87000     199.82040       0.36978
      11.97000     200.17419       0.37011
      12.07000     200.74011       0.37063
      12.17000     199.18469       0.36919
      12.27000     199.97438       0.36992
      12.37000     199.94769       0.36990
      12.47000     200.08250       0.37002
      12.57000     199.38382       0.36938
      12.67000     198.74673       0.36879
      12.77000     199.75403       0.36972
      12.87000     199.74446       0.36971
      12.97000     198.73921       0.36878
      13.07000     198.97871       0.36900
      13.17000     198.63794       0.36868
      13.27000     197.77914       0.36789
      13.37000     197.41646       0.36755
      13.47000     195.94794       0.36618
      13.57000     198.57430       0.36863
      13.67000     197.65117       0.36777
      13.77000     197.13248       0.36728
      13.87000     197.17079       0.36732
      13.97000     197.95500       0.36805
      14.07000     197.93652       0.36803
      14.17000     198.89523       0.36892
      14.27000     198.10623       0.36819
      14.37000     197.84552       0.36795
      14.47000     198.74127       0.36878
      14.57000     198.53188       0.36859
      14.67000     197.93927       0.36804
      14.77000     200.38976       0.37031
      14.87000     199.12515       0.36914
      14.97000     198.79944       0.36883
      15.07000     199.71913       0.36969
      15.17000     200.00517       0.36995
      15.27000     199.34619       0.36934
      15.37000     199.40984       0.36940
      15.47000     199.78825       0.36975
      15.57000     198.64273       0.36869
      15.67000     199.51111       0.36949
      15.77000     198.70294       0.36875
      15.87000     198.68584       0.36873
      15.97000     199.45363       0.36944
      16.07000     200.01886       0.36996
      16.17000     199.45567       0.36944
      16.27000     198.85213       0.36888
      16.37000     199.43719       0.36943
      16.47000     200.17557       0.37011
      16.57000     199.93948       0.36989
      16.67000     199.55421       0.36953
      16.77000     199.95932       0.36991
      16.87000     198.88155       0.36891
      16.97000     199.43857       0.36943
      17.07000     198.79944       0.36883
      17.17000     199.31540       0.36931
      17.27000     199.16621       0.36917
      17.37000     199.36740       0.36936
      17.47000     200.16257       0.37010
      17.57000     199.71434       0.36968
      17.67000     200.63132       0.37053
      17.77000     201.92122       0.37172
      17.87000     201.55853       0.37139
      17.97000     201.74330       0.37156
      18.07000     201.89249       0.37169
      18.17000     202.06766       0.37185
      18.27000     201.37241       0.37121
      18.37000     200.83386       0.37072
      18.47000     201.53801       0.37137
      18.57000     202.10530       0.37189
      18.67000     202.12993       0.37191
      18.77000     202.66711       0.37241
      18.87000     201.95749       0.37175
      18.97000     202.95110       0.37267
      19.07000     202.41255       0.37217
      19.17000     202.33180       0.37210
      19.27000     203.82906       0.37347
      19.37000     204.63722       0.37421
      19.47000     207.19650       0.37654
      19.57000     210.13695       0.37921
      19.67000     213.58379       0.38230
      19.77000     216.41954       0.38483
      19.87000     220.12640       0.38811
      19.97000     224.40739       0.39187
      20.07000     231.73833       0.39822
      20.17000     245.81169       0.41013
      20.27000     260.40512       0.42213
      20.37000     271.46619       0.43100
      20.47000     277.04666       0.43541
      20.57000     269.85123       0.42972
      20.67000     255.87573       0.41845
      20.77000     240.17851       0.40541
      20.87000     228.24223       0.39520
      20.97000     218.99525       0.38712
      21.07000     214.25714       0.38291
      21.17000     210.44284       0.37948
      21.27000     208.76836       0.37797
      21.37000     206.89746       0.37627
      21.47000     205.81285       0.37528
      21.57000     205.14087       0.37467
      21.67000     205.05806       0.37460
      21.77000     204.45518       0.37404
      21.87000     204.19037       0.37380
      21.97000     203.37810       0.37306
      22.07000     203.42668       0.37310
      22.17000     204.98074       0.37452
      22.27000     204.62422       0.37420
      22.37000     205.81421       0.37529
      22.47000     207.07812       0.37644
      22.57000     206.41229       0.37583
      22.67000     208.78819       0.37799
      22.77000     210.08426       0.37916
      22.87000     211.90999       0.38080
      22.97000     215.25006       0.38379
      23.07000     219.40036       0.38747
      23.17000     228.86836       0.39575
      23.27000     242.33885       0.40723
      23.37000     266.39005       0.42696
      23.47000     308.00931       0.45910
      23.57000     365.57352       0.50016
      23.67000     425.89478       0.53985
      23.77000     464.86441       0.56401
      23.87000     455.93839       0.55857
      23.97000     403.62415       0.52555
      24.07000     335.50732       0.47915
      24.17000     280.21704       0.43790
      24.27000     244.55258       0.40908
      24.37000     226.30907       0.39353
      24.47000     217.01146       0.38536
      24.57000     212.42184       0.38126
      24.67000     209.02702       0.37820
      24.77000     207.03706       0.37640
      24.87000     206.03525       0.37549
      24.97000     204.23347       0.37384
      25.07000     203.25493       0.37294
      25.17000     201.55376       0.37138
      25.27000     200.82907       0.37071
      25.37000     201.17122       0.37103
      25.47000     199.83957       0.36980
      25.57000     199.81084       0.36977
      25.67000     199.53711       0.36952
      25.77000     199.12311       0.36913
      25.87000     199.78072       0.36974
      25.97000     198.17261       0.36825
      26.07000     198.72894       0.36877
      26.17000     198.89796       0.36893
      26.27000     196.75337       0.36693
      26.37000     196.86491       0.36704
      26.47000     197.68265       0.36780
      26.57000     197.70523       0.36782
      26.67000     196.86627       0.36704
      26.77000     197.03462       0.36719
      26.87000     197.74698       0.36786
      26.97000     198.49765       0.36855
      27.07000     198.99788       0.36902
      27.17000     197.22075       0.36737
      27.27000     196.10808       0.36633
      27.37000     196.01089       0.36624
      27.47000     196.23125       0.36644
      27.57000     195.89389       0.36613
      27.67000     197.55196       0.36768
      27.77000     197.93311       0.36803
      27.87000     197.23102       0.36738
      27.97000     197.94406       0.36804
      28.07000     197.25017       0.36739
      28.17000     197.05583       0.36721
      28.27000     198.21298       0.36829
      28.37000     197.62038       0.36774
      28.47000     198.68994       0.36873
      28.57000     197.50679       0.36763
      28.67000     197.45683       0.36759
      28.77000     197.30219       0.36744
      28.87000     197.03462       0.36719
      28.97000     197.52184       0.36765
      29.07000     198.32452       0.36839
      29.17000     198.81380       0.36885
      29.27000     198.24309       0.36832
      29.37000     197.76956       0.36788
      29.47000     198.70226       0.36874
      29.57000     198.86855       0.36890
      29.67000     198.36285       0.36843
      29.77000     198.98419       0.36901
      29.87000     199.51863       0.36950
      29.97000     198.16577       0.36825
      30.07000     198.19998       0.36828
      30.17000     198.82269       0.36886
      30.27000     197.58479       0.36771
      30.37000     198.31494       0.36838
      30.47000     198.11375       0.36820
      30.57000     198.19930       0.36828
      30.67000     199.11148       0.36912
      30.77000     199.42352       0.36941
      30.87000     199.84642       0.36980
      30.97000     201.58386       0.37141
      31.07000     202.86624       0.37259
      31.17000     205.01016       0.37455
      31.27000     206.69696       0.37609
      31.37000     208.71498       0.37792
      31.47000     211.24074       0.38020
      31.57000     212.81737       0.38162
      31.67000     215.62917       0.38413
      31.77000     214.65746       0.38326
      31.87000     213.71175       0.38242
      31.97000     210.22249       0.37928
      32.07000     206.56421       0.37597
      32.17000     202.54599       0.37229
      32.27000     200.33842       0.37026
      32.37000     197.88179       0.36798
      32.47000     197.96732       0.36806
      32.57000     195.20410       0.36548
      32.67000     196.08344       0.36631
      32.77000     192.62634       0.36306
      32.87000     194.57591       0.36490
      32.97000     192.38341       0.36283
      33.07000     193.46461       0.36385
      33.17000     195.60854       0.36586
      33.27000     191.92630       0.36240
      33.37000     194.56566       0.36489
      33.47000     190.96690       0.36150
      33.57000     194.37679       0.36471
      33.67000     189.85971       0.36045
      33.77000     193.71301       0.36409
      33.87000     193.39687       0.36379
      33.97000     193.82797       0.36419
      34.07000     193.26547       0.36366
      34.17000     192.41216       0.36286
      34.27000     191.58826       0.36208
      34.37000     194.00658       0.36436
      34.47000     192.30882       0.36276
      34.57000     192.63387       0.36307
      34.67000     193.64389       0.36402
      34.77000     193.35307       0.36375
      34.87000     194.28714       0.36462
      34.97000     194.05585       0.36441
      35.07000     194.41374       0.36474
      35.17000     192.28419       0.36274
      35.27000     194.25430       0.36459
      35.37000     192.76457       0.36319
      35.47000     194.00931       0.36436
      35.57000     195.29512       0.36557
      35.67000     196.83002       0.36700
      35.77000     191.70116       0.36219
      35.87000     196.60760       0.36680
      35.97000     193.19910       0.36360
      36.07000     193.48924       0.36388
      36.17000     194.15097       0.36450
      36.27000     194.40074       0.36473
      36.37000     193.80676       0.36417
      36.47000     194.64983       0.36496
      36.57000     196.11423       0.36634
      36.67000     195.53941       0.36580
      36.77000     195.78577       0.36603
      36.87000     195.07410       0.36536
      36.97000     196.34279       0.36655
      37.07000     195.35876       0.36563
      37.17000     196.10329       0.36632
      37.27000     196.09575       0.36632
      37.37000     197.24812       0.36739
      37.47000     196.76706       0.36694
      37.57000     198.04465       0.36813
      37.67000     197.40825       0.36754
      37.77000     197.74287       0.36785
      37.87000     197.34802       0.36749
      37.97000     197.60944       0.36773
      38.07000     197.43288       0.36756
      38.17000     197.60875       0.36773
      38.27000     197.54442       0.36767
      38.37000     196.98740       0.36715
      38.47000     198.86034       0.36889
      38.57000     197.13931       0.36729
      38.67000     198.80217       0.36884
      38.77000     198.25746       0.36833
      38.87000     198.33069       0.36840
      38.97000     197.78392       0.36789
      39.07000     196.71504       0.36690
      39.17000     197.57727       0.36770
      39.27000     199.52138       0.36950
      39.37000     199.27776       0.36928
      39.47000     200.52730       0.37043
      39.57000     202.78001       0.37251
      39.67000     203.46706       0.37314
      39.77000     204.90341       0.37445
      39.87000     207.34842       0.37668
      39.97000     211.60820       0.38053
      40.07000     217.07510       0.38542
      40.17000     222.29085       0.39002
      40.27000     223.43158       0.39102
      40.37000     224.80635       0.39222
      40.47000     222.97789       0.39062
      40.57000     218.94530       0.38707
      40.67000     213.48456       0.38221
      40.77000     210.10136       0.37917
      40.87000     208.64586       0.37786
      40.97000     206.93031       0.37630
      41.07000     207.28273       0.37662
      41.17000     209.20151       0.37836
      41.27000     214.04158       0.38271
      41.37000     218.32190       0.38652
      41.47000     226.87363       0.39402
      41.57000     239.56197       0.40489
      41.67000     257.11841       0.41946
      41.77000     278.49808       0.43655
      41.87000     301.26755       0.45405
      41.97000     316.83817       0.46563
      42.07000     325.77448       0.47215
      42.17000     318.75696       0.46704
      42.27000     304.11426       0.45619
      42.37000     280.56262       0.43817
      42.47000     255.81757       0.41840
      42.57000     236.53255       0.40232
      42.67000     221.72356       0.38952
      42.77000     213.66385       0.38238
      42.87000     208.32219       0.37757
      42.97000     206.42873       0.37585
      43.07000     204.90683       0.37446
      43.17000     204.24033       0.37385
      43.27000     203.67441       0.37333
      43.37000     203.15639       0.37285
      43.47000     202.60895       0.37235
      43.57000     203.91664       0.37355
      43.67000     203.18649       0.37288
      43.77000     204.28137       0.37389
      43.87000     205.37831       0.37489
      43.97000     205.14497       0.37467
      44.07000     205.72389       0.37520
      44.17000     205.77042       0.37525
      44.27000     206.29391       0.37572
      44.37000     206.92210       0.37629
      44.47000     207.54413       0.37686
      44.57000     208.15453       0.37741
      44.67000     208.07242       0.37734
      44.77000     209.70515       0.37882
      44.87000     210.98344       0.37997
      44.97000     211.85249       0.38075
      45.07000     215.10156       0.38366
      45.17000     217.92090       0.38617
      45.27000     222.38528       0.39010
      45.37000     225.99977       0.39326
      45.47000     231.94157       0.39839
      45.57000     239.51884       0.40485
      45.67000     245.20609       0.40963
      45.77000     254.71790       0.41750
      45.87000     262.63391       0.42394
      45.97000     268.44226       0.42860
      46.07000     272.49332       0.43182
      46.17000     275.83273       0.43446
      46.27000     276.99329       0.43537
      46.37000     276.58957       0.43505
      46.47000     275.42352       0.43413
      46.57000     275.85736       0.43448
      46.67000     278.99966       0.43694
      46.77000     282.35825       0.43957
      46.87000     287.00327       0.44317
      46.97000     297.34787       0.45108
      47.07000     306.36697       0.45787
      47.17000     319.92575       0.46790
      47.27000     332.30615       0.47686
      47.37000     341.85696       0.48367
      47.47000     347.40939       0.48758
      47.57000     347.04672       0.48732
      47.67000     341.28625       0.48326
      47.77000     330.29089       0.47541
      47.87000     317.64224       0.46622
      47.97000     305.77917       0.45743
      48.07000     295.66653       0.44981
      48.17000     288.11664       0.44403
      48.27000     283.45929       0.44042
      48.37000     280.84454       0.43839
      48.47000     281.29825       0.43874
      48.57000     282.68259       0.43982
      48.67000     283.70700       0.44061
      48.77000     285.13239       0.44172
      48.87000     286.61664       0.44287
      48.97000     285.13925       0.44173
      49.07000     280.32242       0.43798
      49.17000     273.42261       0.43255
      49.27000     265.02417       0.42586
      49.37000     253.84677       0.41678
      49.47000     243.06285       0.40783
      49.57000     233.73308       0.39993
      49.67000     225.52213       0.39284
      49.77000     219.33398       0.38742
      49.87000     214.94075       0.38352
      49.97000     212.11185       0.38098
      50.07000     208.69034       0.37790
      50.17000     208.07652       0.37734
      50.27000     206.26927       0.37570
      50.37000     204.61943       0.37419
      50.47000     204.02408       0.37365
      50.57000     202.54324       0.37229
      50.67000     201.84184       0.37165
      50.77000     201.90274       0.37170
      50.87000     201.69334       0.37151
      50.97000     201.06584       0.37093
      51.07000     200.37332       0.37029
      51.17000     200.13861       0.37007
      51.27000     199.75609       0.36972
      51.37000     197.70044       0.36781
      51.47000     198.86238       0.36889
      51.57000     198.17809       0.36826
      51.67000     197.12427       0.36728
      51.77000     196.38248       0.36659
      51.87000     195.59485       0.36585
      51.97000     194.88043       0.36518
      52.07000     195.77687       0.36602
      52.17000     194.51091       0.36483
      52.27000     194.49312       0.36482
      52.37000     194.80995       0.36511
      52.47000     194.88864       0.36519
      52.57000     194.30768       0.36464
      52.67000     194.84895       0.36515
      52.77000     194.25497       0.36459
      52.87000     193.84303       0.36421
      52.97000     195.01935       0.36531
      53.07000     195.19795       0.36548
      53.17000     195.76591       0.36601
      53.27000     196.11012       0.36633
      53.37000     196.13065       0.36635
      53.47000     195.05835       0.36535
      53.57000     196.78554       0.36696
      53.67000     197.05035       0.36721
      53.77000     197.24127       0.36739
      53.87000     196.61583       0.36680
      53.97000     195.53668       0.36580
      54.07000     195.82750       0.36607
      54.17000     194.01820       0.36437
      54.27000     194.21460       0.36456
      54.37000     193.06703       0.36348
      54.47000     193.43793       0.36383
      54.57000     193.24084       0.36364
      54.67000     193.22578       0.36363
      54.77000     192.61882       0.36306
      54.87000     193.36676       0.36376
      54.97000     193.12109       0.36353
      55.07000     193.45914       0.36385
      55.17000     191.86882       0.36235
      55.27000     193.10466       0.36351
      55.37000     192.51343       0.36296
      55.47000     191.87292       0.36235
      55.57000     193.29149       0.36369
      55.67000     193.84645       0.36421
      55.77000     193.53578       0.36392
      55.87000     193.71574       0.36409
      55.97000     193.48309       0.36387
      56.07000     194.27962       0.36462
      56.17000     194.59370       0.36491
      56.27000     195.30470       0.36558
      56.37000     196.59050       0.36678
      56.47000     196.14229       0.36636
      56.57000     196.17102       0.36639
      56.67000     195.66191       0.36591
      56.77000     195.97600       0.36621
      56.87000     195.93289       0.36617
      56.97000     197.43629       0.36757
      57.07000     197.08321       0.36724
      57.17000     198.50519       0.36856
      57.27000     198.50861       0.36856
      57.37000     198.52298       0.36858
      57.47000     197.61627       0.36774
      57.57000     197.99400       0.36809
      57.67000     198.37585       0.36844
      57.77000     197.78461       0.36789
      57.87000     198.45796       0.36852
      57.97000     199.34413       0.36934
      58.07000     200.63268       0.37053
      58.17000     199.86626       0.36982
      58.27000     201.61055       0.37143
      58.37000     202.17509       0.37195
      58.47000     203.48485       0.37316
      58.57000     203.75993       0.37341
      58.67000     204.71864       0.37429
      58.77000     204.93489       0.37448
      58.87000     204.65843       0.37423
      58.97000     202.45155       0.37221
      59.07000     204.10278       0.37372
      59.17000     204.15547       0.37377
      59.27000     203.19608       0.37289
      59.37000     201.90891       0.37171
      59.47000     202.20316       0.37198
      59.57000     201.98965       0.37178
      59.67000     202.43034       0.37219
      59.77000     201.98965       0.37178
      59.87000     201.53528       0.37136
      59.97000     201.10895       0.37097
      60.07000     201.22870       0.37108
      60.17000     199.74719       0.36971
      60.27000     198.16508       0.36825
      60.37000     197.66075       0.36778
      60.47000     198.91302       0.36894
      60.57000     197.99811       0.36809
      60.67000     197.71344       0.36783
      60.77000     197.39867       0.36753
      60.87000     197.72644       0.36784
      60.97000     195.94589       0.36618
      61.07000     197.48625       0.36761
      61.17000     196.11765       0.36634
      61.27000     195.30812       0.36558
      61.37000     194.87222       0.36517
      61.47000     193.97372       0.36433
      61.57000     193.44545       0.36383
      61.67000     192.81110       0.36324
      61.77000     194.01274       0.36437
      61.87000     192.45595       0.36290
      61.97000     191.61563       0.36211
      62.07000     192.21439       0.36267
      62.17000     191.64232       0.36213
      62.27000     191.36655       0.36187
      62.37000     190.87657       0.36141
      62.47000     191.18726       0.36170
      62.57000     190.51253       0.36107
      62.67000     191.50066       0.36200
      62.77000     191.69638       0.36219
      62.87000     190.87384       0.36141
      62.97000     192.24586       0.36270
      63.07000     191.24953       0.36176
      63.17000     192.16376       0.36263
      63.27000     191.89551       0.36237
      63.37000     191.70663       0.36220
      63.47000     192.02142       0.36249
      63.57000     191.93178       0.36241
      63.67000     191.71828       0.36221
      63.77000     190.47763       0.36103
      63.87000     191.85513       0.36234
      63.97000     191.71280       0.36220
      64.07000     191.94341       0.36242
      64.17000     191.18109       0.36170
      64.27000     192.78168       0.36321
      64.37000     193.39549       0.36379
      64.47000     195.15416       0.36544
      64.57000     195.81245       0.36605
      64.67000     195.36012       0.36563
      64.77000     197.55879       0.36768
      64.87000     198.53734       0.36859
      64.97000     199.57748       0.36956
      65.07000     199.62538       0.36960
      65.17000     200.85918       0.37074
      65.27000     202.35986       0.37212
      65.37000     205.58292       0.37507
      65.47000     207.67415       0.37698
      65.57000     211.57605       0.38050
      65.67000     217.67386       0.38595
      65.77000     225.01575       0.39240
      65.87000     233.13362       0.39942
      65.97000     242.64679       0.40748
      66.07000     255.70465       0.41831
      66.17000     266.93405       0.42739
      66.27000     279.75583       0.43754
      66.37000     292.23135       0.44719
      66.47000     301.06500       0.45389
      66.57000     306.59006       0.45804
      66.67000     309.12131       0.45993
      66.77000     305.66010       0.45734
      66.87000     299.02441       0.45235
      66.97000     288.59564       0.44439
      67.07000     275.96136       0.43456
      67.17000     260.64670       0.42233
      67.27000     246.89973       0.41104
      67.37000     234.13885       0.40028
      67.47000     223.68752       0.39124
      67.57000     215.76740       0.38425
      67.67000     210.29161       0.37935
      67.77000     204.47983       0.37407
      67.87000     200.83182       0.37072
      67.97000     199.15938       0.36917
      68.07000     197.93379       0.36803
      68.17000     195.51614       0.36578
      68.27000     193.91420       0.36427
      68.37000     192.95959       0.36338
      68.47000     192.13159       0.36260
      68.57000     192.10559       0.36257
      68.67000     191.10376       0.36163
      68.77000     190.80540       0.36134
      68.87000     190.10605       0.36068
      68.97000     189.93977       0.36052
      69.07000     190.49132       0.36105
      69.17000     190.19638       0.36077
      69.27000     190.85057       0.36139
      69.37000     189.18704       0.35981
      69.47000     190.19228       0.36076
      69.57000     189.47034       0.36008
      69.67000     188.68750       0.35933
      69.77000     188.64027       0.35929
      69.87000     188.69913       0.35934
      69.97000     189.25615       0.35987
      70.07000     189.05771       0.35968
      70.17000     188.33850       0.35900
      70.27000     188.44115       0.35910
      70.37000     188.57664       0.35923
      70.47000     188.54173       0.35919
      70.57000     188.81340       0.35945
      70.67000     188.14142       0.35881
      70.77000     187.53308       0.35823
      70.87000     187.82117       0.35851
      70.97000     187.53033       0.35823
      71.07000     187.48381       0.35818
      71.17000     187.67679       0.35837
      71.27000     188.02440       0.35870
      71.37000     187.36610       0.35807
      71.47000     187.48586       0.35819
      71.57000     187.38116       0.35809
      71.67000     186.97879       0.35770
      71.77000     188.18932       0.35886
      71.87000     188.01073       0.35869
      71.97000     188.23792       0.35890
      72.07000     189.51413       0.36012
      72.17000     189.38275       0.35999
      72.27000     189.99315       0.36057
      72.37000     190.51869       0.36107
      72.47000     190.58438       0.36113
      72.57000     191.42813       0.36193
      72.67000     189.61746       0.36022
      72.77000     191.54926       0.36205
      72.87000     189.73584       0.36033
      72.97000     189.37111       0.35998
      73.07000     189.73721       0.36033
      73.17000     189.60173       0.36020
      73.27000     189.48265       0.36009
      73.37000     188.97148       0.35960
      73.47000     189.19046       0.35981
      73.57000     189.43817       0.36005
      73.67000     189.46486       0.36007
      73.77000     189.82275       0.36041
      73.87000     190.01163       0.36059
      73.97000     189.63936       0.36024
      74.07000     189.95346       0.36054
      74.17000     189.83507       0.36042
      74.27000     189.77690       0.36037
      74.37000     188.09489       0.35877
      74.47000     189.77621       0.36037
      74.57000     188.73882       0.35938
      74.67000     188.35081       0.35901
      74.77000     188.06204       0.35874
      74.87000     188.58211       0.35923
      74.97000     188.26871       0.35893
      75.07000     187.60973       0.35830
      75.17000     187.34489       0.35805
      75.27000     186.74202       0.35747
      75.37000     187.82458       0.35851
      75.47000     187.74179       0.35843
      75.57000     187.54950       0.35825
      75.67000     187.35173       0.35806
      75.77000     187.60973       0.35830
      75.87000     188.05110       0.35873
      75.97000     189.09261       0.35972
      76.07000     189.19730       0.35982
      76.17000     188.97627       0.35961
      76.27000     189.54219       0.36014
      76.37000     189.76253       0.36035
      76.47000     190.80815       0.36135
      76.57000     189.98698       0.36057
      76.67000     191.53967       0.36204
      76.77000     192.28214       0.36274
      76.87000     190.82799       0.36136
      76.97000     192.96370       0.36338
      77.07000     192.33072       0.36278
      77.17000     193.24974       0.36365
      77.27000     193.21143       0.36361
      77.37000     192.29103       0.36275
      77.47000     191.32274       0.36183
      77.57000     192.27530       0.36273
      77.67000     191.13936       0.36166
      77.77000     192.37794       0.36283
      77.87000     191.02438       0.36155
      77.97000     192.10628       0.36257
      78.07000     190.52621       0.36108
      78.17000     190.35925       0.36092
      78.27000     191.06340       0.36159
      78.37000     189.51619       0.36012
      78.47000     192.25134       0.36271
      78.57000     191.12224       0.36164
      78.67000     190.65897       0.36120
      78.77000     191.89619       0.36237
      78.87000     190.80884       0.36135
      78.97000     191.57457       0.36207
      79.07000     190.54128       0.36109
      79.17000     191.19273       0.36171
      79.27000     191.20641       0.36172
      79.37000     190.47215       0.36103
      79.47000     191.50682       0.36201
      79.57000     190.88753       0.36142
      79.67000     191.32411       0.36183
      79.77000     191.17836       0.36170
      79.87000     190.60217       0.36115
      79.97000     191.38570       0.36189
      80.07000     191.35628       0.36186
      80.17000     190.98059       0.36151
      80.27000     191.41649       0.36192
      80.37000     191.30974       0.36182
      80.47000     190.96759       0.36150
      80.57000     191.69569       0.36218
      80.67000     191.66969       0.36216
      80.77000     191.56909       0.36207
      80.87000     192.19728       0.36266
      80.97000     191.87634       0.36236
      81.07000     192.26640       0.36272
      81.17000     192.22534       0.36268
      81.27000     192.62018       0.36306
      81.37000     192.34851       0.36280
      81.47000     192.58528       0.36302
      81.57000     191.98172       0.36245
      81.67000     192.20001       0.36266
      81.77000     192.07822       0.36255
      81.87000     192.35603       0.36281
      81.97000     193.14503       0.36355
      82.07000     192.29924       0.36275
      82.17000     191.80724       0.36229
      82.27000     191.56226       0.36206
      82.37000     191.21530       0.36173
      82.47000     191.46782       0.36197
      82.57000     190.45367       0.36101
      82.67000     190.97990       0.36151
      82.77000     190.50432       0.36106
      82.87000     190.24017       0.36081
      82.97000     190.83209       0.36137
      83.07000     189.27325       0.35989
      83.17000     189.35332       0.35997
      83.27000     189.55109       0.36015
      83.37000     189.14050       0.35976
      83.47000     189.94113       0.36052
      83.57000     188.71487       0.35936
      83.67000     188.59511       0.35924
      83.77000     187.04243       0.35776
      83.87000     188.84694       0.35948
      83.97000     188.26665       0.35893
      84.07000     188.43294       0.35909
      84.17000     187.75273       0.35844
      84.27000     188.52600       0.35918
      84.37000     187.99361       0.35867
      84.47000     189.22673       0.35984
      84.57000     188.86131       0.35950
      84.67000     189.04538       0.35967
      84.77000     189.73790       0.36033
      84.87000     189.76117       0.36035
      84.97000     190.01778       0.36060
      85.07000     190.37567       0.36094
      85.17000     191.47397       0.36198
      85.27000     192.16786       0.36263
      85.37000     191.81339       0.36230
      85.47000     192.59760       0.36304
      85.57000     193.78281       0.36415
      85.67000     194.24951       0.36459
      85.77000     194.98581       0.36528
      85.87000     196.51729       0.36671
      85.97000     196.61104       0.36680
      86.07000     199.07384       0.36909
      86.17000     200.49513       0.37040
      86.27000     202.27843       0.37205
      86.37000     204.95679       0.37450
      86.47000     207.39017       0.37672
      86.57000     209.63809       0.37876
      86.67000     213.16568       0.38193
      86.77000     214.60477       0.38322
      86.87000     218.35680       0.38655
      86.97000     220.56230       0.38850
      87.07000     222.26143       0.38999
      87.17000     226.21806       0.39345
      87.27000     227.32800       0.39441
      87.37000     228.78830       0.39568
      87.47000     229.38911       0.39620
      87.57000     230.40051       0.39707
      87.67000     229.03738       0.39589
      87.77000     228.45094       0.39539
      87.87000     226.59854       0.39378
      87.97000     224.43887       0.39190
      88.07000     222.51872       0.39022
      88.17000     219.27238       0.38736
      88.27000     218.35884       0.38655
      88.37000     215.46631       0.38398
      88.47000     212.48070       0.38131
      88.57000     210.92459       0.37992
      88.67000     209.03659       0.37821
      88.77000     206.97548       0.37634
      88.87000     206.51700       0.37593
      88.97000     205.92987       0.37539
      89.07000     204.22527       0.37383
      89.17000     204.92189       0.37447
      89.27000     204.36691       0.37396
      89.37000     205.07585       0.37461
      89.47000     205.90796       0.37537
      89.57000     206.49989       0.37591
      89.67000     208.30165       0.37755
      89.77000     209.36369       0.37851
      89.87000     211.76149       0.38067
      89.97000     213.31075       0.38206
      90.07000     216.31415       0.38474
      90.17000     217.57396       0.38586
      90.27000     220.08397       0.38808
      90.37000     223.16676       0.39079
      90.47000     226.78535       0.39394
      90.57000     228.45163       0.39539
      90.67000     232.08595       0.39852
      90.77000     235.04283       0.40105
      90.87000     235.67513       0.40159
      90.97000     240.07793       0.40532
      91.07000     240.30032       0.40551
      91.17000     240.23326       0.40545
      91.27000     241.31172       0.40636
      91.37000     240.78207       0.40592
      91.47000     240.04166       0.40529
      91.57000     238.89818       0.40432
      91.67000     235.41235       0.40136
      91.77000     232.86606       0.39919
      91.87000     230.73309       0.39736
      91.97000     228.40578       0.39535
      92.07000     226.15784       0.39340
      92.17000     223.27487       0.39088
      92.27000     221.53607       0.38936
      92.37000     218.07692       0.38630
      92.47000     216.84792       0.38521
      92.57000     215.63533       0.38414
      92.67000     213.86230       0.38255
      92.77000     211.85455       0.38075
      92.87000     210.92801       0.37992
      92.97000     209.95972       0.37905
      93.07000     210.17732       0.37924
      93.17000     209.45882       0.37859
      93.27000     207.47913       0.37680
      93.37000     207.08154       0.37644
      93.47000     205.75194       0.37523
      93.57000     206.73119       0.37612
      93.67000     206.88377       0.37626
      93.77000     205.11281       0.37465
      93.87000     203.80237       0.37345
      93.97000     203.59435       0.37326
      94.07000     203.60391       0.37326
      94.17000     203.68399       0.37334
      94.27000     202.15114       0.37193
      94.37000     201.45863       0.37129
      94.47000     200.75517       0.37064
      94.57000     200.46707       0.37038
      94.67000     199.14363       0.36915
      94.77000     198.70158       0.36874
      94.87000     197.07773       0.36723
      94.97000     196.67262       0.36686
      95.07000     196.03143       0.36626
      95.17000     194.89481       0.36519
      95.27000     194.40826       0.36474
      95.37000     194.08733       0.36444
      95.47000     193.39139       0.36378
      95.57000     193.50293       0.36389
      95.67000     193.70480       0.36408
      95.77000     192.08232       0.36255
      95.87000     194.29535       0.36463
      95.97000     193.12314       0.36353
      96.07000     193.59874       0.36398
      96.17000     193.23743       0.36364
      96.27000     195.01524       0.36531
      96.37000     193.43382       0.36382
      96.47000     194.01205       0.36437
      96.57000     194.02505       0.36438
      96.67000     194.59918       0.36492
      96.77000     194.88864       0.36519
      96.87000     193.92583       0.36429
      96.97000     193.25247       0.36365
      97.07000     192.70845       0.36314
      97.17000     192.28693       0.36274
      97.27000     191.69638       0.36219
      97.37000     190.66992       0.36121
      97.47000     190.38319       0.36094
      97.57000     189.15556       0.35978
      97.67000     189.26367       0.35988
      97.77000     187.39143       0.35810
      97.87000     187.17929       0.35789
      97.97000     187.12798       0.35784
      98.07000     186.91583       0.35764
      98.17000     185.89349       0.35666
      98.27000     186.50183       0.35724
      98.37000     185.30568       0.35610
      98.47000     185.72104       0.35650
      98.57000     185.94618       0.35671
      98.67000     186.40329       0.35715
      98.77000     184.53720       0.35536
      98.87000     185.77785       0.35655
      98.97000     186.01460       0.35678
      99.07000     185.62456       0.35640
      99.17000     186.03514       0.35680
      99.27000     186.07962       0.35684
      99.37000     186.07072       0.35683
      99.47000     186.22606       0.35698
      99.57000     185.56981       0.35635
      99.67000     185.29745       0.35609
      99.77000     185.84285       0.35661
      99.87000     185.63893       0.35642
      99.97000     186.09946       0.35686
     100.07000     186.21100       0.35697
     100.17000     185.08054       0.35588
     100.27000     185.56297       0.35634
     100.37000     185.89418       0.35666
     100.47000     185.90239       0.35667
     100.57000     186.55931       0.35730
     100.67000     185.28583       0.35608
     100.77000     185.53629       0.35632
     100.87000     186.20006       0.35696
     100.97000     186.29860       0.35705
     101.07000     186.16721       0.35692
     101.17000     187.74931       0.35844
     101.27000     186.21375       0.35697
     101.37000     187.63641       0.35833
     101.47000     187.73769       0.35843
     101.57000     187.82869       0.35851
     101.67000     188.98448       0.35961
     101.77000     188.22079       0.35889
     101.87000     189.06250       0.35969
     101.97000     189.19388       0.35981
     102.07000     189.63936       0.36024
     102.17000     188.83804       0.35948
     102.27000     189.75638       0.36035
     102.37000     190.24771       0.36081
     102.47000     190.40509       0.36096
     102.57000     189.86723       0.36045
     102.67000     190.87247       0.36141
     102.77000     190.43794       0.36099
     102.87000     191.76276       0.36225
     102.97000     191.34190       0.36185
     103.07000     191.40691       0.36191
     103.17000     190.68497       0.36123
     103.27000     192.39574       0.36285
     103.37000     192.27119       0.36273
     103.47000     193.26001       0.36366
     103.57000     194.51160       0.36484
     103.67000     194.62383       0.36494
     103.77000     194.52733       0.36485
     103.87000     194.34052       0.36467
     103.97000     194.19202       0.36454
     104.07000     194.35899       0.36469
     104.17000     195.06656       0.36536
     104.27000     194.57866       0.36490
     104.37000     195.67560       0.36593
     104.47000     195.14662       0.36543
     104.57000     195.12952       0.36541
     104.67000     194.31314       0.36465
     104.77000     195.21300       0.36549
     104.87000     195.33002       0.36560
     104.97000     195.22600       0.36550
     105.07000     194.51433       0.36484
     105.17000     194.79764       0.36510
     105.27000     193.84918       0.36421
     105.37000     193.72328       0.36410
     105.47000     193.90599       0.36427
     105.57000     192.96097       0.36338
     105.67000     193.66716       0.36404
     105.77000     193.98947       0.36435
     105.87000     193.13409       0.36354
     105.97000     193.43245       0.36382
     106.07000     192.74814       0.36318
     106.17000     192.73035       0.36316
     106.27000     192.80699       0.36323
     106.37000     193.43039       0.36382
     106.47000     194.19887       0.36454
     106.57000     193.47282       0.36386
     106.67000     193.79239       0.36416
     106.77000     193.55426       0.36394
     106.87000     193.60010       0.36398
     106.97000     192.96165       0.36338
     107.07000     193.01228       0.36343
     107.17000     192.50453       0.36295
     107.27000     192.02005       0.36249
     107.37000     191.95436       0.36243
     107.47000     191.94614       0.36242
     107.57000     191.88387       0.36236
     107.67000     192.21507       0.36268
     107.77000     192.07822       0.36255
     107.87000     190.36746       0.36093
     107.97000     189.64415       0.36024
     108.07000     189.60857       0.36021
     108.17000     188.66971       0.35931
     108.27000     189.14529       0.35977
     108.37000     188.81136       0.35945
     108.47000     188.80725       0.35945
     108.57000     186.66264       0.35740
     108.67000     187.15671       0.35787
     108.77000     186.76802       0.35750
     108.87000     185.93660       0.35670
     108.97000     185.47537       0.35626
     109.07000     185.99339       0.35676
     109.17000     183.86043       0.35471
     109.27000     184.65422       0.35547
     109.37000     182.42545       0.35332
     109.47000     183.13232       0.35400
     109.57000     182.16472       0.35307
     109.67000     183.11864       0.35399
     109.77000     182.52399       0.35341
     109.87000     182.65947       0.35355
     109.97000     182.54178       0.35343
     110.07000     182.32828       0.35322
     110.17000     181.47905       0.35240
     110.27000     181.94028       0.35285
     110.37000     181.45168       0.35237
     110.47000     182.27490       0.35317
     110.57000     181.69188       0.35261
     110.67000     182.37276       0.35327
     110.77000     182.16199       0.35306
     110.87000     181.73703       0.35265
     110.97000     182.41107       0.35330
     111.07000     183.40605       0.35427
     111.17000     183.09811       0.35397
     111.27000     183.20555       0.35407
     111.37000     184.27922       0.35511
     111.47000     183.58260       0.35444
     111.57000     182.03403       0.35294
     111.67000     182.80659       0.35369
     111.77000     183.12411       0.35399
     111.87000     182.36522       0.35326
     111.97000     182.50209       0.35339
     112.07000     183.06937       0.35394
     112.17000     182.11888       0.35302
     112.27000     182.72585       0.35361
     112.37000     182.56093       0.35345
     112.47000     183.10428       0.35398
     112.57000     180.53609       0.35148
     112.67000     180.53951       0.35149
     112.77000     181.45442       0.35238
     112.87000     180.33353       0.35129
     112.97000     180.87344       0.35181
     113.07000     180.75711       0.35170
     113.17000     179.31940       0.35030
     113.27000     179.59654       0.35057
     113.37000     178.70010       0.34969
     113.47000     178.29089       0.34929
     113.57000     177.81940       0.34883
     113.67000     177.52789       0.34854
     113.77000     177.50804       0.34852
     113.87000     177.88989       0.34890
     113.97000     177.00919       0.34803
     114.07000     177.18369       0.34821
     114.17000     177.01945       0.34804
     114.27000     176.89764       0.34792
     114.37000     176.40222       0.34744
     114.47000     175.93073       0.34697
     114.57000     175.95537       0.34700
     114.67000     176.76695       0.34780
     114.77000     176.60614       0.34764
     114.87000     176.54797       0.34758
     114.97000     176.91818       0.34794
     115.07000     177.25075       0.34827
     115.17000     176.73889       0.34777
     115.27000     176.87643       0.34790
     115.37000     176.63762       0.34767
     115.47000     176.90312       0.34793
     115.57000     177.76671       0.34878
     115.67000     177.90562       0.34891
     115.77000     177.61754       0.34863
     115.87000     176.98181       0.34801
     115.97000     178.20056       0.34920
     116.07000     178.65356       0.34965
     116.17000     177.94942       0.34896
     116.27000     178.53381       0.34953
     116.37000     179.52742       0.35050
     116.47000     178.57281       0.34957
     116.57000     178.91565       0.34990
     116.67000     179.33923       0.35032
     116.77000     178.88486       0.34987
     116.87000     179.07236       0.35006
     116.97000     178.80000       0.34979
     117.07000     178.43802       0.34944
     117.17000     179.68071       0.35065
     117.27000     179.32967       0.35031
     117.37000     179.70808       0.35068
     117.47000     180.05161       0.35101
     117.57000     180.25484       0.35121
     117.67000     180.37390       0.35133
     117.77000     180.33421       0.35129
     117.87000     179.49869       0.35047
     117.97000     179.87711       0.35084
     118.07000     179.84700       0.35081
     118.17000     180.25073       0.35121
     118.27000     181.21834       0.35215
     118.37000     181.06847       0.35200
     118.47000     181.41267       0.35234
     118.57000     181.28676       0.35221
     118.67000     182.08603       0.35299
     118.77000     181.81709       0.35273
     118.87000     181.15469       0.35209
     118.97000     181.87595       0.35279
     119.07000     181.86705       0.35278
     119.17000     182.76144       0.35364
     119.27000     181.92796       0.35284
     119.37000     182.71832       0.35360
     119.47000     182.56984       0.35346
     119.57000     183.63734       0.35449
     119.67000     183.52922       0.35439
     119.77000     183.26576       0.35413
     119.87000     184.18478       0.35502
     119.97000     183.61270       0.35447
     120.07000     184.21147       0.35504
     120.17000     183.43411       0.35429
     120.27000     184.22243       0.35505
     120.37000     184.53241       0.35535
     120.47000     184.00345       0.35484
     120.57000     185.27351       0.35607
     120.67000     184.92725       0.35573
     120.77000     185.93729       0.35670
     120.87000     185.96260       0.35673
     120.97000     186.45052       0.35720
     121.07000     186.58327       0.35732
     121.17000     186.59627       0.35733
     121.27000     187.20256       0.35792
     121.37000     186.98906       0.35771
     121.47000     188.18864       0.35886
     121.57000     188.62386       0.35927
     121.67000     188.67313       0.35932
     121.77000     189.17882       0.35980
     121.87000     189.49498       0.36010
     121.97000     188.97627       0.35961
     122.07000     189.76869       0.36036
     122.17000     189.76596       0.36036
     122.27000     189.89529       0.36048
     122.37000     190.37909       0.36094
     122.47000     189.07755       0.35970
     122.57000     190.51527       0.36107
     122.67000     191.49861       0.36200
     122.77000     191.09351       0.36162
     122.87000     190.66444       0.36121
     122.97000     190.37909       0.36094
     123.07000     189.79744       0.36039
     123.17000     190.40099       0.36096
     123.27000     190.86015       0.36139
     123.37000     190.51732       0.36107
     123.47000     189.64073       0.36024
     123.57000     191.09830       0.36162
     123.67000     190.61449       0.36116
     123.77000     189.50798       0.36011
     123.87000     190.28944       0.36085
     123.97000     190.22307       0.36079
     124.07000     190.83757       0.36137
     124.17000     190.01025       0.36059
     124.27000     191.01549       0.36154
     124.37000     189.26163       0.35988
     124.47000     190.40715       0.36097
     124.57000     190.35036       0.36091
     124.67000     190.45436       0.36101
     124.77000     189.85355       0.36044
     124.87000     190.47763       0.36103
     124.97000     189.44296       0.36005
     125.07000     190.37225       0.36093
     125.17000     189.35538       0.35997
     125.27000     189.55792       0.36016
     125.37000     190.16011       0.36073
     125.47000     189.54836       0.36015
     125.57000     190.32845       0.36089
     125.67000     189.67632       0.36027
     125.77000     190.25592       0.36082
     125.87000     191.20778       0.36172
     125.97000     190.91901       0.36145
     126.07000     190.56111       0.36111
     126.17000     192.30061       0.36276
     126.27000     190.84715       0.36138
     126.37000     191.33507       0.36184
     126.47000     192.35468       0.36281
     126.57000     190.99290       0.36152
     126.67000     192.93633       0.36335
     126.77000     192.48537       0.36293
     126.87000     192.74403       0.36317
     126.97000     193.34007       0.36373
     127.07000     193.43793       0.36383
     127.17000     194.30630       0.36464
     127.27000     194.62656       0.36494
     127.37000     194.24677       0.36459
     127.47000     195.26022       0.36554
     127.57000     195.61058       0.36586
     127.67000     195.44225       0.36571
     127.77000     196.24973       0.36646
     127.87000     197.54100       0.36767
     127.97000     197.93927       0.36804
     128.07001     198.55377       0.36861
     128.17000     198.06723       0.36815
     128.27000     199.35782       0.36935
     128.37000     200.80376       0.37069
     128.47000     200.14272       0.37008
     128.57001       0.00205       0.00119
     128.67000       0.00342       0.00153
