       0.77000       0.00616       0.00205
       0.87000       0.00479       0.00181
       0.97000       2.52939       0.04161
       1.07000       2.55198       0.04180
       1.17000       2.78540       0.04367
       1.27000       2.93669       0.04484
       1.37000       3.35631       0.04793
       1.47000       3.82865       0.05119
       1.57000       4.96704       0.05831
       1.67000      17.78579       0.11034
       1.77000      80.21198       0.23433
       1.87000     162.83833       0.33387
       1.97000     206.93863       0.37638
       2.07000     216.41885       0.38490
       2.17000     216.61806       0.38508
       2.27000     216.34355       0.38483
       2.37000     215.93489       0.38447
       2.47000     213.48354       0.38228
       2.57000     208.93817       0.37819
       2.67000     206.87222       0.37631
       2.77000     207.75323       0.37712
       2.87000     207.71695       0.37708
       2.97000     206.98929       0.37642
       3.07000     208.01883       0.37736
       3.17000     205.70235       0.37525
       3.27000     205.33475       0.37491
       3.37000     205.67017       0.37522
       3.47000     207.42603       0.37682
       3.57000     210.27577       0.37940
       3.67000     210.79533       0.37987
       3.77000     212.11035       0.38105
       3.87000     209.95404       0.37911
       3.97000     218.08504       0.38638
       4.07000     218.31847       0.38659
       4.17000     219.75806       0.38786
       4.27000     223.11848       0.39081
       4.37000     225.84158       0.39319
       4.47000     227.39824       0.39454
       4.57000     230.39586       0.39713
       4.67000     232.17703       0.39867
       4.77000     234.29501       0.40048
       4.87000     233.56528       0.39986
       4.97000     233.32980       0.39966
       5.07000     234.80568       0.40092
       5.17000     232.73904       0.39915
       5.27000     231.57053       0.39815
       5.37000     232.40019       0.39886
       5.47000     230.01799       0.39681
       5.57000     228.85085       0.39580
       5.67000     227.86920       0.39495
       5.77000     225.59105       0.39297
       5.87000     225.12350       0.39256
       5.97000     223.19377       0.39088
       6.07000     223.06851       0.39077
       6.17000     220.88960       0.38886
       6.27000     221.08949       0.38903
       6.37000     219.06393       0.38724
       6.47000     218.71002       0.38693
       6.57000     217.30603       0.38569
       6.67000     215.78839       0.38434
       6.77000     214.57265       0.38325
       6.87000     215.35507       0.38395
       6.97000     214.08115       0.38282
       7.07000     214.27213       0.38299
       7.17000     212.72917       0.38160
       7.27000     212.54434       0.38144
       7.37000     212.96123       0.38181
       7.47000     211.74959       0.38073
       7.57000     212.41840       0.38133
       7.67000     211.16431       0.38020
       7.77000     210.42979       0.37954
       7.87000     210.62900       0.37972
       7.97000     208.21393       0.37753
       8.07000     208.10509       0.37743
       8.17000     208.64246       0.37792
       8.27000     209.35439       0.37857
       8.37000     209.11342       0.37835
       8.47000     208.37959       0.37768
       8.57000     207.52391       0.37691
       8.67000     207.38153       0.37678
       8.77000     207.10361       0.37653
       8.87000     205.01985       0.37463
       8.97000     206.25751       0.37576
       9.07000     206.95163       0.37639
       9.17000     206.29105       0.37579
       9.27000     206.23149       0.37573
       9.37000     205.71809       0.37526
       9.47000     206.60184       0.37607
       9.57000     205.64484       0.37520
       9.67000     204.49481       0.37415
       9.77000     204.16350       0.37384
       9.87000     204.02110       0.37371
       9.97000     204.10667       0.37379
      10.07000     203.54604       0.37328
      10.17000     202.72868       0.37253
      10.27000     202.62463       0.37243
      10.37000     202.60753       0.37242
      10.47000     201.90724       0.37177
      10.57000     201.90381       0.37177
      10.67000     202.51717       0.37233
      10.77000     202.98061       0.37276
      10.87000     201.57112       0.37146
      10.97000     202.65475       0.37246
      11.07000     201.86685       0.37173
      11.17000     201.72926       0.37161
      11.27000     200.25954       0.37025
      11.37000     201.01048       0.37095
      11.47000     201.49925       0.37140
      11.57000     201.85248       0.37172
      11.67000     202.94363       0.37272
      11.77000     201.58961       0.37148
      11.87000     200.26501       0.37026
      11.97000     200.71271       0.37067
      12.07000     201.59166       0.37148
      12.17000     200.19862       0.37020
      12.27000     201.67586       0.37156
      12.37000     200.42795       0.37041
      12.47000     200.84209       0.37079
      12.57000     199.34979       0.36941
      12.67000     199.66194       0.36970
      12.77000     200.80170       0.37075
      12.87000     200.52242       0.37049
      12.97000     198.54134       0.36866
      13.07000     200.19931       0.37020
      13.17000     199.95561       0.36997
      13.27000     198.92947       0.36902
      13.37000     198.19223       0.36834
      13.47000     196.50414       0.36676
      13.57000     199.06708       0.36915
      13.67000     198.27095       0.36841
      13.77000     198.80147       0.36890
      13.87000     198.37500       0.36851
      13.97000     199.05544       0.36914
      14.07000     198.83980       0.36894
      14.17000     199.44905       0.36950
      14.27000     199.93164       0.36995
      14.37000     199.12457       0.36920
      14.47000     200.40331       0.37038
      14.57000     199.47574       0.36953
      14.67000     198.97192       0.36906
      14.77000     200.13907       0.37014
      14.87000     199.42097       0.36948
      14.97000     200.26570       0.37026
      15.07000     199.91454       0.36993
      15.17000     200.49434       0.37047
      15.27000     199.96724       0.36998
      15.37000     200.07608       0.37008
      15.47000     200.35675       0.37034
      15.57000     199.49902       0.36955
      15.67000     200.32594       0.37031
      15.77000     200.78459       0.37074
      15.87000     199.87277       0.36989
      15.97000     200.44437       0.37042
      16.07000     201.62041       0.37151
      16.17000     200.74146       0.37070
      16.27000     200.77022       0.37072
      16.37000     200.41014       0.37039
      16.47000     201.18846       0.37111
      16.57000     200.88454       0.37083
      16.67000     201.30005       0.37121
      16.77000     201.12001       0.37105
      16.87000     200.40331       0.37038
      16.97000     200.13016       0.37013
      17.07000     201.39314       0.37130
      17.17000     200.80444       0.37075
      17.27000     200.68738       0.37065
      17.37000     200.39783       0.37038
      17.47000     201.07141       0.37100
      17.57000     201.27335       0.37119
      17.67000     201.90929       0.37177
      17.77000     202.09891       0.37195
      17.87000     201.61426       0.37150
      17.97000     202.98265       0.37276
      18.07000     203.26468       0.37302
      18.17000     203.12093       0.37289
      18.27000     203.19691       0.37296
      18.37000     202.65340       0.37246
      18.47000     202.93884       0.37272
      18.57000     202.30838       0.37214
      18.67000     203.09972       0.37287
      18.77000     202.86217       0.37265
      18.87000     203.08601       0.37286
      18.97000     204.16896       0.37385
      19.07000     203.84792       0.37355
      19.17000     204.31752       0.37398
      19.27000     204.34627       0.37401
      19.37000     204.03548       0.37373
      19.47000     206.25545       0.37575
      19.57000     207.64302       0.37702
      19.67000     209.08057       0.37832
      19.77000     212.08640       0.38103
      19.87000     215.46735       0.38405
      19.97000     221.47009       0.38937
      20.07000     230.65598       0.39736
      20.17000     244.07164       0.40875
      20.27000     259.08847       0.42114
      20.37000     271.36368       0.43100
      20.47000     276.96872       0.43543
      20.57000     270.97076       0.43069
      20.67000     257.32645       0.41970
      20.77000     240.83923       0.40604
      20.87000     228.15056       0.39519
      20.97000     219.73410       0.38784
      21.07000     214.73352       0.38340
      21.17000     210.81656       0.37989
      21.27000     210.58929       0.37968
      21.37000     208.28102       0.37759
      21.47000     207.14879       0.37657
      21.57000     207.13919       0.37656
      21.67000     206.41974       0.37590
      21.77000     206.27394       0.37577
      21.87000     206.16989       0.37568
      21.97000     205.43263       0.37500
      22.07000     205.71672       0.37526
      22.17000     206.15894       0.37567
      22.27000     206.08980       0.37560
      22.37000     206.96669       0.37640
      22.47000     208.43983       0.37774
      22.57000     209.03674       0.37828
      22.67000     210.29356       0.37941
      22.77000     211.66403       0.38065
      22.87000     212.82501       0.38169
      22.97000     216.88982       0.38532
      23.07000     220.80336       0.38878
      23.17000     230.53413       0.39725
      23.27000     243.81631       0.40854
      23.37000     268.24557       0.42852
      23.47000     309.14771       0.46003
      23.57000     367.04700       0.50126
      23.67000     429.45538       0.54220
      23.77000     467.52759       0.56572
      23.87000     458.85718       0.56045
      23.97000     406.48624       0.52750
      24.07000     336.52805       0.47997
      24.17000     280.80215       0.43843
      24.27000     245.71729       0.41013
      24.37000     227.89453       0.39497
      24.47000     217.83038       0.38615
      24.57000     214.18040       0.38290
      24.67000     209.96567       0.37912
      24.77000     208.58769       0.37787
      24.87000     207.91684       0.37726
      24.97000     205.81667       0.37535
      25.07000     205.10201       0.37470
      25.17000     203.83080       0.37354
      25.27000     201.46982       0.37137
      25.37000     202.57878       0.37239
      25.47000     200.57375       0.37054
      25.57000     201.46159       0.37136
      25.67000     200.47517       0.37045
      25.77000     201.49377       0.37139
      25.87000     201.44449       0.37135
      25.97000     200.13564       0.37014
      26.07000     200.11374       0.37012
      26.17000     200.46559       0.37044
      26.27000     197.50494       0.36770
      26.37000     198.81105       0.36891
      26.47000     199.07050       0.36915
      26.57000     198.35515       0.36849
      26.67000     197.83694       0.36801
      26.77000     199.61470       0.36965
      26.87000     198.83911       0.36894
      26.97000     199.74477       0.36978
      27.07000     199.60033       0.36964
      27.17000     198.00465       0.36816
      27.27000     197.54123       0.36773
      27.37000     197.50700       0.36770
      27.47000     198.09708       0.36825
      27.57000     197.89377       0.36806
      27.67000     198.32503       0.36846
      27.77000     198.57214       0.36869
      27.87000     198.16280       0.36831
      27.97000     198.26547       0.36840
      28.07000     197.60626       0.36779
      28.17000     197.21265       0.36742
      28.27000     199.00819       0.36909
      28.37000     198.36610       0.36850
      28.47000     199.02325       0.36911
      28.57000     197.29753       0.36750
      28.67000     196.95595       0.36718
      28.77000     197.64664       0.36783
      28.87000     195.92160       0.36622
      28.97000     197.20923       0.36742
      29.07000     198.20523       0.36835
      29.17000     197.88760       0.36805
      29.27000     197.14282       0.36736
      29.37000     197.03671       0.36726
      29.47000     197.76781       0.36794
      29.57000     197.00044       0.36723
      29.67000     197.24550       0.36745
      29.77000     197.11681       0.36733
      29.87000     197.62953       0.36781
      29.97000     196.63968       0.36689
      30.07000     197.28041       0.36749
      30.17000     197.71921       0.36790
      30.27000     197.51659       0.36771
      30.37000     197.84721       0.36801
      30.47000     198.43181       0.36856
      30.57000     197.84380       0.36801
      30.67000     198.26820       0.36841
      30.77000     197.87392       0.36804
      30.87000     197.88350       0.36805
      30.97000     199.06981       0.36915
      31.07000     198.94385       0.36903
      31.17000     199.29160       0.36936
      31.27000     200.00146       0.37001
      31.37000     201.82440       0.37170
      31.47000     205.40868       0.37498
      31.57000     208.60617       0.37789
      31.67000     212.75587       0.38163
      31.77000     214.24612       0.38296
      31.87000     212.39648       0.38131
      31.97000     209.68295       0.37886
      32.07000     206.70110       0.37616
      32.17000     202.76976       0.37256
      32.27000     201.25487       0.37117
      32.37000     198.68442       0.36879
      32.47000     197.84721       0.36801
      32.57000     195.83603       0.36614
      32.67000     196.60956       0.36686
      32.77000     193.16151       0.36363
      32.87000     196.88200       0.36712
      32.97000     193.81047       0.36424
      33.07000     194.64835       0.36503
      33.17000     196.56712       0.36682
      33.27000     192.53105       0.36304
      33.37000     195.03511       0.36539
      33.47000     192.13266       0.36266
      33.57000     196.67596       0.36692
      33.67000     191.10927       0.36169
      33.77000     195.75252       0.36606
      33.87000     194.46352       0.36485
      33.97000     194.90848       0.36527
      34.07000     194.28075       0.36468
      34.17000     193.81526       0.36425
      34.27000     193.18480       0.36365
      34.37000     195.36575       0.36570
      34.47000     193.09648       0.36357
      34.57000     193.89809       0.36432
      34.67000     194.50665       0.36489
      34.77000     193.58936       0.36403
      34.87000     195.95924       0.36625
      34.97000     194.49774       0.36489
      35.07000     195.27539       0.36562
      35.17000     192.86101       0.36335
      35.27000     195.15901       0.36551
      35.37000     193.86592       0.36429
      35.47000     195.07892       0.36543
      35.57000     195.56496       0.36589
      35.67000     197.73975       0.36791
      35.77000     192.69740       0.36319
      35.87000     196.58698       0.36684
      35.97000     194.43752       0.36483
      36.07000     194.38959       0.36478
      36.17000     194.32935       0.36473
      36.27000     194.94818       0.36531
      36.37000     194.19655       0.36460
      36.47000     194.81401       0.36518
      36.57000     195.49376       0.36582
      36.67000     194.78593       0.36516
      36.77000     194.78183       0.36515
      36.87000     194.30060       0.36470
      36.97000     195.07208       0.36542
      37.07000     195.24731       0.36559
      37.17000     195.35959       0.36569
      37.27000     195.33289       0.36567
      37.37000     196.70540       0.36695
      37.47000     196.24060       0.36652
      37.57000     197.04698       0.36727
      37.67000     194.84344       0.36521
      37.77000     195.89079       0.36619
      37.87000     196.10164       0.36639
      37.97000     195.31783       0.36565
      38.07000     195.68542       0.36600
      38.17000     195.41161       0.36574
      38.27000     195.50540       0.36583
      38.37000     194.84207       0.36521
      38.47000     196.04002       0.36633
      38.57000     195.85999       0.36616
      38.67000     196.86284       0.36710
      38.77000     195.98526       0.36628
      38.87000     197.16747       0.36738
      38.97000     197.81778       0.36799
      39.07000     195.22746       0.36557
      39.17000     196.76085       0.36700
      39.27000     198.83911       0.36894
      39.37000     200.22943       0.37022
      39.47000     200.41768       0.37040
      39.57000     202.84779       0.37264
      39.67000     203.22841       0.37299
      39.77000     205.74957       0.37529
      39.87000     209.73978       0.37891
      39.97000     213.51776       0.38231
      40.07000     218.13705       0.38642
      40.17000     223.38818       0.39105
      40.27000     224.91882       0.39239
      40.37000     224.92978       0.39240
      40.47000     224.17679       0.39174
      40.57000     218.90854       0.38711
      40.67000     212.93248       0.38179
      40.77000     210.76590       0.37984
      40.87000     208.10167       0.37743
      40.97000     208.42271       0.37772
      41.07000     208.93748       0.37819
      41.17000     209.83287       0.37900
      41.27000     215.33659       0.38394
      41.37000     218.34242       0.38661
      41.47000     228.16356       0.39521
      41.57000     240.61880       0.40585
      41.67000     258.10547       0.42034
      41.77000     278.98059       0.43701
      41.87000     302.34128       0.45493
      41.97000     318.21857       0.46673
      42.07000     326.49673       0.47276
      42.17000     319.85257       0.46792
      42.27000     304.58728       0.45662
      42.37000     281.07870       0.43865
      42.47000     256.26608       0.41884
      42.57000     237.35559       0.40309
      42.67000     222.59753       0.39036
      42.77000     214.50899       0.38320
      42.87000     209.85272       0.37902
      42.97000     207.13988       0.37656
      43.07000     206.26846       0.37577
      43.17000     205.20741       0.37480
      43.27000     203.95197       0.37365
      43.37000     204.42499       0.37408
      43.47000     203.12093       0.37289
      43.57000     204.25795       0.37393
      43.67000     204.76520       0.37439
      43.77000     205.49835       0.37506
      43.87000     206.60388       0.37607
      43.97000     206.99408       0.37643
      44.07000     206.36703       0.37586
      44.17000     206.39374       0.37588
      44.27000     207.12346       0.37654
      44.37000     207.59373       0.37697
      44.47000     209.19077       0.37842
      44.57000     209.84930       0.37901
      44.67000     209.58096       0.37877
      44.77000     210.60229       0.37969
      44.87000     211.51616       0.38052
      44.97000     213.17276       0.38200
      45.07000     216.56535       0.38503
      45.17000     218.95099       0.38715
      45.27000     223.60861       0.39124
      45.37000     228.58592       0.39557
      45.47000     233.90961       0.40015
      45.57000     240.89810       0.40609
      45.67000     248.66081       0.41258
      45.77000     257.19571       0.41960
      45.87000     264.61682       0.42561
      45.97000     269.66190       0.42965
      46.07000     274.32227       0.43334
      46.17000     275.26352       0.43408
      46.27000     276.28622       0.43489
      46.37000     276.70175       0.43522
      46.47000     277.29456       0.43568
      46.57000     277.68063       0.43599
      46.67000     279.47141       0.43739
      46.77000     283.56018       0.44058
      46.87000     290.82181       0.44618
      46.97000     299.06918       0.45247
      47.07000     310.67560       0.46116
      47.17000     322.82828       0.47010
      47.27000     335.81339       0.47946
      47.37000     343.28516       0.48476
      47.47000     346.97620       0.48736
      47.57000     347.56699       0.48777
      47.67000     339.48322       0.48207
      47.77000     327.49139       0.47348
      47.87000     315.29147       0.46458
      47.97000     303.62619       0.45590
      48.07000     294.01657       0.44863
      48.17000     286.82339       0.44311
      48.27000     283.70804       0.44069
      48.37000     281.47028       0.43895
      48.47000     281.66537       0.43910
      48.57000     282.17740       0.43950
      48.67000     282.04938       0.43940
      48.77000     286.11557       0.44256
      48.87000     286.25385       0.44267
      48.97000     283.27267       0.44035
      49.07000     280.25247       0.43800
      49.17000     271.92227       0.43144
      49.27000     263.71735       0.42488
      49.37000     252.94469       0.41611
      49.47000     243.05852       0.40790
      49.57000     233.09500       0.39945
      49.67000     225.01877       0.39247
      49.77000     220.11128       0.38817
      49.87000     215.05115       0.38368
      49.97000     212.30476       0.38122
      50.07000     209.70555       0.37888
      50.17000     208.58769       0.37787
      50.27000     205.66058       0.37521
      50.37000     205.66879       0.37522
      50.47000     204.91922       0.37453
      50.57000     203.75893       0.37347
      50.67000     203.55562       0.37329
      50.77000     202.83821       0.37263
      50.87000     201.64095       0.37153
      50.97000     201.09399       0.37102
      51.07000     201.42326       0.37133
      51.17000     200.37933       0.37036
      51.27000     199.68658       0.36972
      51.37000     198.47084       0.36859
      51.47000     199.13826       0.36921
      51.57000     197.90335       0.36807
      51.67000     196.41652       0.36668
      51.77000     197.40500       0.36760
      51.87000     195.38834       0.36572
      51.97000     194.82838       0.36520
      52.07000     195.53140       0.36585
      52.17000     194.92969       0.36529
      52.27000     195.07892       0.36543
      52.37000     194.53951       0.36493
      52.47000     193.77077       0.36420
      52.57000     194.75514       0.36513
      52.67000     194.77635       0.36515
      52.77000     193.55444       0.36400
      52.87000     193.78514       0.36422
      52.97000     194.16985       0.36458
      53.07000     194.06923       0.36448
      53.17000     194.53677       0.36492
      53.27000     194.77704       0.36515
      53.37000     193.52980       0.36398
      53.47000     193.80225       0.36423
      53.57000     194.36632       0.36476
      53.67000     194.98241       0.36534
      53.77000     195.04744       0.36540
      53.87000     194.56483       0.36495
      53.97000     194.36632       0.36476
      54.07000     194.65724       0.36504
      54.17000     193.82416       0.36425
      54.27000     193.60510       0.36405
      54.37000     192.46260       0.36297
      54.47000     193.74954       0.36418
      54.57000     192.62279       0.36312
      54.67000     192.65291       0.36315
      54.77000     192.48587       0.36299
      54.87000     192.65839       0.36316
      54.97000     192.96779       0.36345
      55.07000     192.78433       0.36328
      55.17000     192.54611       0.36305
      55.27000     194.04047       0.36446
      55.37000     193.75365       0.36419
      55.47000     192.19632       0.36272
      55.57000     193.54007       0.36399
      55.67000     194.39233       0.36479
      55.77000     194.07059       0.36449
      55.87000     193.52296       0.36397
      55.97000     193.87003       0.36430
      56.07000     194.92627       0.36529
      56.17000     194.77362       0.36514
      56.27000     196.21800       0.36650
      56.37000     196.71909       0.36696
      56.47000     196.05988       0.36635
      56.57000     197.19690       0.36741
      56.67000     196.87379       0.36711
      56.77000     196.24950       0.36653
      56.87000     196.54659       0.36680
      56.97000     197.56929       0.36776
      57.07000     197.85338       0.36802
      57.17000     198.70563       0.36881
      57.27000     198.27026       0.36841
      57.37000     198.14568       0.36829
      57.47000     197.31874       0.36752
      57.57000     197.26331       0.36747
      57.67000     197.46524       0.36766
      57.77000     198.26273       0.36840
      57.87000     199.08145       0.36916
      57.97000     199.41414       0.36947
      58.07000     199.71396       0.36975
      58.17000     199.58733       0.36963
      58.27000     201.20831       0.37113
      58.37000     201.31648       0.37123
      58.47000     203.23936       0.37300
      58.57000     203.46594       0.37320
      58.67000     204.50302       0.37415
      58.77000     204.32436       0.37399
      58.87000     204.61186       0.37425
      58.97000     202.98402       0.37276
      59.07000     203.62886       0.37335
      59.17000     204.16075       0.37384
      59.27000     203.78973       0.37350
      59.37000     203.36600       0.37311
      59.47000     202.65065       0.37246
      59.57000     202.22829       0.37207
      59.67000     203.19487       0.37296
      59.77000     202.96349       0.37274
      59.87000     202.37752       0.37220
      59.97000     201.59714       0.37149
      60.07000     200.73256       0.37069
      60.17000     200.30746       0.37030
      60.27000     199.13963       0.36921
      60.37000     198.64676       0.36876
      60.47000     198.57352       0.36869
      60.57000     198.53381       0.36865
      60.67000     197.98755       0.36815
      60.77000     198.21960       0.36836
      60.87000     198.17717       0.36832
      60.97000     197.34065       0.36754
      61.07000     198.02519       0.36818
      61.17000     196.05713       0.36635
      61.27000     195.92708       0.36622
      61.37000     195.39929       0.36573
      61.47000     194.39644       0.36479
      61.57000     194.69284       0.36507
      61.67000     193.28954       0.36375
      61.77000     194.10893       0.36452
      61.87000     192.91646       0.36340
      61.97000     192.43454       0.36295
      62.07000     192.73848       0.36323
      62.17000     192.22713       0.36275
      62.27000     191.46385       0.36203
      62.37000     191.74657       0.36230
      62.47000     191.63020       0.36219
      62.57000     191.45975       0.36203
      62.67000     192.05257       0.36259
      62.77000     192.23602       0.36276
      62.87000     192.10458       0.36263
      62.97000     192.70561       0.36320
      63.07000     192.23259       0.36276
      63.17000     192.24423       0.36277
      63.27000     192.11623       0.36265
      63.37000     192.64264       0.36314
      63.47000     192.64058       0.36314
      63.57000     192.18605       0.36271
      63.67000     192.44344       0.36295
      63.77000     191.56174       0.36212
      63.87000     192.49203       0.36300
      63.97000     192.31133       0.36283
      64.07000     192.37498       0.36289
      64.17000     192.59061       0.36309
      64.27000     194.13083       0.36454
      64.37000     194.74623       0.36512
      64.47000     196.15572       0.36644
      64.57000     195.22610       0.36557
      64.67000     196.29330       0.36657
      64.77000     198.32571       0.36846
      64.87000     199.34021       0.36940
      64.97000     201.15492       0.37108
      65.07000     200.55595       0.37053
      65.17000     202.28922       0.37212
      65.27000     202.00375       0.37186
      65.37000     205.42921       0.37500
      65.47000     208.53430       0.37782
      65.57000     211.56544       0.38056
      65.67000     218.63951       0.38687
      65.77000     224.65869       0.39216
      65.87000     233.35376       0.39968
      65.97000     243.31111       0.40811
      66.07000     254.66631       0.41753
      66.17000     268.20383       0.42848
      66.27000     281.31213       0.43883
      66.37000     292.08957       0.44716
      66.47000     301.99081       0.45467
      66.57000     306.64227       0.45816
      66.67000     309.75079       0.46048
      66.77000     306.15009       0.45779
      66.87000     298.88229       0.45232
      66.97000     289.48285       0.44516
      67.07000     276.24994       0.43486
      67.17000     259.62515       0.42157
      67.27000     247.74216       0.41181
      67.37000     234.30322       0.40049
      67.47000     223.72498       0.39134
      67.57000     216.17859       0.38469
      67.67000     209.41325       0.37862
      67.77000     204.48659       0.37414
      67.87000     201.10291       0.37103
      67.97000     198.56119       0.36868
      68.07000     197.61241       0.36780
      68.17000     195.42873       0.36576
      68.27000     193.54349       0.36399
      68.37000     192.46877       0.36298
      68.47000     192.21959       0.36274
      68.57000     191.76711       0.36232
      68.67000     190.98672       0.36158
      68.77000     191.76506       0.36231
      68.87000     189.74702       0.36040
      68.97000     190.90800       0.36150
      69.07000     190.16595       0.36080
      69.17000     189.59984       0.36026
      69.27000     190.88609       0.36148
      69.37000     189.95306       0.36060
      69.47000     190.51303       0.36113
      69.57000     189.74017       0.36040
      69.67000     188.99745       0.35969
      69.77000     188.88792       0.35959
      69.87000     188.93242       0.35963
      69.97000     188.86122       0.35956
      70.07000     188.59425       0.35931
      70.17000     188.00006       0.35874
      70.27000     188.87355       0.35957
      70.37000     188.24034       0.35897
      70.47000     188.20406       0.35893
      70.57000     188.79825       0.35950
      70.67000     188.15067       0.35888
      70.77000     187.77965       0.35853
      70.87000     188.61890       0.35933
      70.97000     187.15329       0.35793
      71.07000     186.80144       0.35759
      71.17000     187.39561       0.35816
      71.27000     187.72282       0.35847
      71.37000     187.20395       0.35798
      71.47000     187.03897       0.35782
      71.57000     187.19984       0.35798
      71.67000     187.46475       0.35823
      71.77000     187.77211       0.35852
      71.87000     188.24171       0.35897
      71.97000     188.43475       0.35915
      72.07000     189.34314       0.36002
      72.17000     189.72786       0.36038
      72.27000     190.31108       0.36094
      72.37000     190.26659       0.36090
      72.47000     190.23373       0.36086
      72.57000     191.40567       0.36197
      72.67000     190.49797       0.36111
      72.77000     191.09077       0.36168
      72.87000     189.41638       0.36009
      72.97000     189.26236       0.35994
      73.07000     189.88940       0.36054
      73.17000     189.43144       0.36010
      73.27000     189.06728       0.35976
      73.37000     189.59711       0.36026
      73.47000     189.34314       0.36002
      73.57000     189.12956       0.35982
      73.67000     189.31165       0.35999
      73.77000     190.01741       0.36066
      73.87000     190.56367       0.36118
      73.97000     189.86272       0.36051
      74.07000     190.28850       0.36092
      74.17000     189.97908       0.36062
      74.27000     190.25427       0.36088
      74.37000     188.47652       0.35919
      74.47000     189.06590       0.35976
      74.57000     188.63533       0.35935
      74.67000     188.98650       0.35968
      74.77000     188.05141       0.35879
      74.87000     188.30196       0.35903
      74.97000     188.59904       0.35931
      75.07000     187.76117       0.35851
      75.17000     186.80348       0.35760
      75.27000     187.10538       0.35788
      75.37000     188.07536       0.35881
      75.47000     188.06921       0.35881
      75.57000     188.39436       0.35912
      75.67000     188.10413       0.35884
      75.77000     188.40121       0.35912
      75.87000     188.24309       0.35897
      75.97000     188.72226       0.35943
      76.07000     188.96664       0.35966
      76.17000     189.26715       0.35995
      76.27000     189.61285       0.36028
      76.37000     190.74988       0.36135
      76.47000     190.25563       0.36089
      76.57000     190.97714       0.36157
      76.67000     191.50014       0.36206
      76.77000     192.71178       0.36321
      76.87000     192.09775       0.36263
      76.97000     193.78104       0.36421
      77.07000     192.87744       0.36336
      77.17000     193.37921       0.36384
      77.27000     192.88702       0.36337
      77.37000     193.22244       0.36369
      77.47000     192.29489       0.36281
      77.57000     192.09706       0.36263
      77.67000     191.84789       0.36239
      77.77000     192.27025       0.36279
      77.87000     191.91223       0.36245
      77.97000     191.89648       0.36244
      78.07000     190.83202       0.36143
      78.17000     190.96071       0.36155
      78.27000     191.65005       0.36221
      78.37000     190.55478       0.36117
      78.47000     192.64058       0.36314
      78.57000     191.38307       0.36195
      78.67000     191.20236       0.36178
      78.77000     191.38924       0.36196
      78.87000     191.43031       0.36200
      78.97000     192.35786       0.36287
      79.07000     191.69659       0.36225
      79.17000     192.36472       0.36288
      79.27000     191.40157       0.36197
      79.37000     191.47139       0.36204
      79.47000     191.74794       0.36230
      79.57000     191.43304       0.36200
      79.67000     191.25713       0.36183
      79.77000     190.99016       0.36158
      79.87000     191.12706       0.36171
      79.97000     191.46112       0.36203
      80.07000     191.68907       0.36224
      80.17000     190.96277       0.36156
      80.27000     192.24492       0.36277
      80.37000     191.28381       0.36186
      80.47000     191.00316       0.36159
      80.57000     191.04971       0.36164
      80.67000     192.20659       0.36273
      80.77000     191.90744       0.36245
      80.87000     192.17647       0.36270
      80.97000     192.06419       0.36260
      81.07000     192.52078       0.36303
      81.17000     192.21138       0.36274
      81.27000     192.40373       0.36292
      81.37000     192.55707       0.36306
      81.47000     193.62154       0.36406
      81.57000     192.33459       0.36285
      81.67000     192.41879       0.36293
      81.77000     192.70699       0.36320
      81.87000     193.26968       0.36373
      81.97000     192.42564       0.36294
      82.07000     192.08063       0.36261
      82.17000     191.78833       0.36234
      82.27000     192.11691       0.36265
      82.37000     190.56300       0.36118
      82.47000     191.77190       0.36232
      82.57000     190.57532       0.36119
      82.67000     191.08736       0.36167
      82.77000     189.78877       0.36044
      82.87000     191.04697       0.36163
      82.97000     190.24263       0.36087
      83.07000     189.27332       0.35995
      83.17000     190.60544       0.36122
      83.27000     188.65106       0.35936
      83.37000     188.12808       0.35886
      83.47000     188.99060       0.35968
      83.57000     188.26636       0.35899
      83.67000     188.03156       0.35877
      83.77000     187.97269       0.35871
      83.87000     188.82358       0.35952
      83.97000     188.08769       0.35882
      84.07000     188.69145       0.35940
      84.17000     187.79129       0.35854
      84.27000     188.32591       0.35905
      84.37000     187.94394       0.35869
      84.47000     189.42186       0.36009
      84.57000     187.73584       0.35849
      84.67000     188.88107       0.35958
      84.77000     190.11256       0.36075
      84.87000     189.21172       0.35989
      84.97000     189.53961       0.36021
      85.07000     191.03397       0.36162
      85.17000     191.78902       0.36234
      85.27000     192.61046       0.36311
      85.37000     192.86101       0.36335
      85.47000     192.97670       0.36346
      85.57000     194.22940       0.36463
      85.67000     195.26306       0.36560
      85.77000     196.04002       0.36633
      85.87000     196.96141       0.36719
      85.97000     198.15526       0.36830
      86.07000     200.19109       0.37019
      86.17000     202.25089       0.37209
      86.27000     203.76645       0.37348
      86.37000     206.42111       0.37590
      86.47000     208.29539       0.37761
      86.57000     210.67760       0.37976
      86.67000     214.42821       0.38313
      86.77000     215.73773       0.38429
      86.87000     219.77997       0.38788
      86.97000     222.37437       0.39016
      87.07000     224.25276       0.39180
      87.17000     227.91438       0.39499
      87.27000     229.09727       0.39601
      87.37000     228.90903       0.39585
      87.47000     230.58752       0.39730
      87.57000     229.38272       0.39626
      87.67000     228.93846       0.39588
      87.77000     226.84377       0.39406
      87.87000     225.27205       0.39269
      87.97000     222.79059       0.39052
      88.07000     221.00529       0.38896
      88.17000     218.51561       0.38676
      88.27000     216.47226       0.38495
      88.37000     213.97710       0.38272
      88.47000     211.76808       0.38074
      88.57000     209.92255       0.37908
      88.67000     207.53828       0.37692
      88.77000     206.87497       0.37632
      88.87000     205.35460       0.37493
      88.97000     204.82339       0.37445
      89.07000     204.92744       0.37454
      89.17000     204.58722       0.37423
      89.27000     204.85419       0.37447
      89.37000     204.95482       0.37457
      89.47000     206.87154       0.37631
      89.57000     206.44302       0.37592
      89.67000     208.09550       0.37743
      89.77000     209.88422       0.37904
      89.87000     211.66949       0.38065
      89.97000     214.12837       0.38286
      90.07000     216.28264       0.38478
      90.17000     217.99536       0.38630
      90.27000     221.02309       0.38897
      90.37000     223.83177       0.39144
      90.47000     227.77336       0.39487
      90.57000     229.60246       0.39645
      90.67000     231.98810       0.39850
      90.77000     235.57304       0.40157
      90.87000     236.97020       0.40276
      90.97000     239.42566       0.40484
      91.07000     240.42029       0.40568
      91.17000     241.13838       0.40629
      91.27000     241.86057       0.40690
      91.37000     240.90633       0.40609
      91.47000     239.40443       0.40482
      91.57000     238.09627       0.40372
      91.67000     235.20476       0.40126
      91.77000     233.21959       0.39956
      91.87000     230.85655       0.39753
      91.97000     228.81935       0.39577
      92.07000     225.76286       0.39312
      92.17000     223.78728       0.39140
      92.27000     221.17986       0.38911
      92.37000     217.84065       0.38616
      92.47000     217.28275       0.38567
      92.57000     215.92873       0.38446
      92.67000     213.21315       0.38204
      92.77000     212.09460       0.38104
      92.87000     212.11104       0.38105
      92.97000     210.50372       0.37960
      93.07000     210.18610       0.37932
      93.17000     209.17776       0.37841
      93.27000     208.90942       0.37816
      93.37000     207.25557       0.37666
      93.47000     205.32927       0.37491
      93.57000     206.83595       0.37628
      93.67000     206.55391       0.37603
      93.77000     204.82887       0.37445
      93.87000     204.16760       0.37385
      93.97000     204.11284       0.37380
      94.07000     203.25374       0.37301
      94.17000     202.15984       0.37200
      94.27000     201.39383       0.37130
      94.37000     200.90233       0.37085
      94.47000     200.72983       0.37069
      94.57000     199.42235       0.36948
      94.67000     199.36211       0.36942
      94.77000     197.86433       0.36803
      94.87000     196.91487       0.36715
      94.97000     195.94762       0.36624
      95.07000     196.29604       0.36657
      95.17000     194.25883       0.36466
      95.27000     194.20065       0.36461
      95.37000     193.85359       0.36428
      95.47000     193.48874       0.36394
      95.57000     192.83499       0.36332
      95.67000     192.96848       0.36345
      95.77000     192.40100       0.36291
      95.87000     193.83237       0.36426
      95.97000     193.14920       0.36362
      96.07000     193.94054       0.36436
      96.17000     194.02061       0.36444
      96.27000     194.70653       0.36508
      96.37000     194.22050       0.36463
      96.47000     194.48885       0.36488
      96.57000     193.86797       0.36430
      96.67000     195.79564       0.36610
      96.77000     194.88452       0.36525
      96.87000     194.06648       0.36448
      96.97000     193.51884       0.36397
      97.07000     193.94121       0.36436
      97.17000     192.96985       0.36345
      97.27000     192.22438       0.36275
      97.37000     190.77794       0.36138
      97.47000     190.99083       0.36158
      97.57000     188.97281       0.35967
      97.67000     189.89078       0.36054
      97.77000     188.07880       0.35881
      97.87000     187.89191       0.35864
      97.97000     187.51952       0.35828
      98.07000     188.10617       0.35884
      98.17000     186.40097       0.35721
      98.27000     186.28940       0.35710
      98.37000     185.95740       0.35679
      98.47000     186.10799       0.35693
      98.57000     186.92671       0.35771
      98.67000     186.79869       0.35759
      98.77000     185.74039       0.35658
      98.87000     185.33035       0.35618
      98.97000     185.55283       0.35640
      99.07000     186.43657       0.35724
      99.17000     186.28871       0.35710
      99.27000     186.48450       0.35729
      99.37000     186.14427       0.35696
      99.47000     186.61523       0.35742
      99.57000     185.76778       0.35660
      99.67000     185.88689       0.35672
      99.77000     186.05255       0.35688
      99.87000     185.45836       0.35631
      99.97000     185.91563       0.35675
     100.07000     186.17850       0.35700
     100.17000     185.31735       0.35617
     100.27000     185.38649       0.35624
     100.37000     185.88620       0.35672
     100.47000     186.29761       0.35711
     100.57000     185.70753       0.35655
     100.67000     185.29407       0.35615
     100.77000     185.89989       0.35673
     100.87000     186.27638       0.35709
     100.97000     186.52625       0.35733
     101.07000     186.83839       0.35763
     101.17000     186.66042       0.35746
     101.27000     187.09921       0.35788
     101.37000     187.57634       0.35834
     101.47000     187.47708       0.35824
     101.57000     187.74336       0.35849
     101.67000     188.42859       0.35915
     101.77000     187.91176       0.35866
     101.87000     189.21786       0.35990
     101.97000     189.59300       0.36026
     102.07000     189.45267       0.36012
     102.17000     189.81342       0.36047
     102.27000     190.01193       0.36065
     102.37000     190.80669       0.36141
     102.47000     191.01411       0.36160
     102.57000     190.62529       0.36124
     102.67000     191.98137       0.36252
     102.77000     190.67458       0.36128
     102.87000     191.97247       0.36251
     102.97000     192.91988       0.36340
     103.07000     191.22563       0.36180
     103.17000     191.50562       0.36207
     103.27000     193.04994       0.36353
     103.37000     193.20122       0.36367
     103.47000     193.40042       0.36386
     103.57000     194.19861       0.36461
     103.67000     194.43819       0.36483
     103.77000     194.79416       0.36516
     103.87000     194.19928       0.36461
     103.97000     194.20065       0.36461
     104.07000     195.18776       0.36553
     104.17000     195.63477       0.36595
     104.27000     195.11314       0.36546
     104.37000     195.46570       0.36579
     104.47000     194.88863       0.36525
     104.57000     195.15149       0.36550
     104.67000     195.14395       0.36549
     104.77000     194.78389       0.36515
     104.87000     195.30276       0.36564
     104.97000     195.31783       0.36565
     105.07000     194.34441       0.36474
     105.17000     194.60522       0.36499
     105.27000     193.23750       0.36370
     105.37000     193.45450       0.36391
     105.47000     194.04594       0.36446
     105.57000     194.21777       0.36462
     105.67000     193.81458       0.36424
     105.77000     193.50790       0.36396
     105.87000     193.26762       0.36373
     105.97000     193.55855       0.36400
     106.07000     193.36346       0.36382
     106.17000     193.73790       0.36417
     106.27000     193.03282       0.36351
     106.37000     193.29089       0.36375
     106.47000     193.61058       0.36405
     106.57000     194.16643       0.36458
     106.67000     193.76323       0.36420
     106.77000     192.98628       0.36347
     106.87000     192.92809       0.36341
     106.97000     192.92194       0.36341
     107.07000     193.18137       0.36365
     107.17000     193.47162       0.36392
     107.27000     191.66237       0.36222
     107.37000     191.42415       0.36199
     107.47000     191.62062       0.36218
     107.57000     191.30779       0.36188
     107.67000     191.42963       0.36200
     107.77000     191.21536       0.36179
     107.87000     190.76357       0.36137
     107.97000     190.70128       0.36131
     108.07000     189.39859       0.36007
     108.17000     188.64012       0.35935
     108.27000     189.62791       0.36029
     108.37000     188.31770       0.35904
     108.47000     187.37851       0.35815
     108.57000     186.40030       0.35721
     108.67000     187.21422       0.35799
     108.77000     186.04228       0.35687
     108.87000     185.98683       0.35681
     108.97000     185.35020       0.35620
     109.07000     185.29613       0.35615
     109.17000     183.80725       0.35472
     109.27000     183.83189       0.35474
     109.37000     183.38489       0.35431
     109.47000     183.33423       0.35426
     109.57000     182.43132       0.35339
     109.67000     182.07535       0.35304
     109.77000     182.63599       0.35358
     109.87000     181.86862       0.35284
     109.97000     182.50661       0.35346
     110.07000     182.03154       0.35300
     110.17000     182.31494       0.35327
     110.27000     181.83575       0.35281
     110.37000     181.78511       0.35276
     110.47000     181.61465       0.35259
     110.57000     182.20473       0.35317
     110.67000     182.13354       0.35310
     110.77000     182.16502       0.35313
     110.87000     182.54016       0.35349
     110.97000     181.90970       0.35288
     111.07000     182.81398       0.35376
     111.17000     183.17610       0.35411
     111.27000     183.58340       0.35450
     111.37000     183.78397       0.35469
     111.47000     184.07285       0.35497
     111.57000     183.14392       0.35408
     111.67000     183.43211       0.35435
     111.77000     183.52795       0.35445
     111.87000     183.01317       0.35395
     111.97000     183.04329       0.35398
     112.07000     182.94746       0.35389
     112.17000     182.83794       0.35378
     112.27000     182.74826       0.35369
     112.37000     183.19458       0.35412
     112.47000     182.93719       0.35388
     112.57000     180.77199       0.35178
     112.67000     181.53046       0.35251
     112.77000     181.24911       0.35224
     112.87000     181.09576       0.35209
     112.97000     181.10947       0.35210
     113.07000     180.32840       0.35134
     113.17000     179.18727       0.35023
     113.27000     178.98053       0.35003
     113.37000     178.46849       0.34953
     113.47000     178.42058       0.34948
     113.57000     177.88663       0.34896
     113.67000     178.32132       0.34938
     113.77000     177.21852       0.34830
     113.87000     178.13580       0.34920
     113.97000     177.59708       0.34867
     114.07000     178.02423       0.34909
     114.17000     177.32530       0.34841
     114.27000     177.16649       0.34825
     114.37000     176.73387       0.34782
     114.47000     177.16103       0.34824
     114.57000     175.90352       0.34701
     114.67000     177.26781       0.34835
     114.77000     177.50534       0.34858
     114.87000     176.64967       0.34774
     114.97000     176.51550       0.34761
     115.07000     177.60391       0.34868
     115.17000     176.69621       0.34779
     115.27000     178.05777       0.34912
     115.37000     176.57642       0.34767
     115.47000     177.44099       0.34852
     115.57000     177.83051       0.34890
     115.67000     177.53615       0.34861
     115.77000     178.28093       0.34934
     115.87000     176.90158       0.34799
     115.97000     177.79422       0.34887
     116.07000     178.55338       0.34961
     116.17000     178.28641       0.34935
     116.27000     178.72452       0.34978
     116.37000     179.39673       0.35044
     116.47000     179.08389       0.35013
     116.57000     178.42743       0.34949
     116.67000     179.32965       0.35037
     116.77000     179.50146       0.35054
     116.87000     179.48778       0.35052
     116.97000     178.52531       0.34958
     117.07000     179.24818       0.35029
     117.17000     179.52132       0.35056
     117.27000     179.63153       0.35066
     117.37000     179.06473       0.35011
     117.47000     179.58566       0.35062
     117.57000     180.20381       0.35122
     117.67000     180.68300       0.35169
     117.77000     180.64671       0.35165
     117.87000     178.98807       0.35004
     117.97000     179.75064       0.35078
     118.07000     180.25720       0.35127
     118.17000     180.40712       0.35142
     118.27000     180.98488       0.35198
     118.37000     181.18134       0.35217
     118.47000     181.53867       0.35252
     118.57000     181.74472       0.35272
     118.67000     182.62640       0.35358
     118.77000     180.99036       0.35199
     118.87000     181.18340       0.35218
     118.97000     181.51266       0.35250
     119.07000     182.53400       0.35349
     119.17000     182.83588       0.35378
     119.27000     182.41693       0.35337
     119.37000     182.70445       0.35365
     119.47000     183.15967       0.35409
     119.57000     183.70662       0.35462
     119.67000     183.52110       0.35444
     119.77000     183.34792       0.35427
     119.87000     184.13377       0.35503
     119.97000     184.13925       0.35504
     120.07000     185.48096       0.35633
     120.17000     183.79150       0.35470
     120.27000     184.52464       0.35541
     120.37000     184.73001       0.35561
     120.47000     184.32339       0.35521
     120.57000     185.64729       0.35649
     120.67000     185.22699       0.35608
     120.77000     185.40907       0.35626
     120.87000     185.53435       0.35638
     120.97000     187.29704       0.35807
     121.07000     186.52008       0.35732
     121.17000     187.57976       0.35834
     121.27000     187.37987       0.35815
     121.37000     187.26898       0.35804
     121.47000     187.77144       0.35852
     121.57000     189.04330       0.35973
     121.67000     188.57782       0.35929
     121.77000     188.52853       0.35924
     121.87000     189.43144       0.36010
     121.97000     189.39790       0.36007
     122.07000     190.31245       0.36094
     122.17000     190.19334       0.36083
     122.27000     189.67993       0.36034
     122.37000     189.76550       0.36042
     122.47000     189.98798       0.36063
     122.57000     189.99345       0.36064
     122.67000     190.63077       0.36124
     122.77000     191.01685       0.36161
     122.87000     189.90036       0.36055
     122.97000     190.39803       0.36102
     123.07000     190.22963       0.36086
     123.17000     190.23715       0.36087
     123.27000     190.51234       0.36113
     123.37000     190.17418       0.36081
     123.47000     191.04903       0.36164
     123.57000     190.03384       0.36067
     123.67000     189.69705       0.36035
     123.77000     189.47252       0.36014
     123.87000     190.62119       0.36123
     123.97000     190.46579       0.36108
     124.07000     190.61981       0.36123
     124.17000     190.06465       0.36070
     124.27000     190.96277       0.36156
     124.37000     189.81206       0.36046
     124.47000     190.45004       0.36107
     124.57000     190.65747       0.36127
     124.67000     190.24400       0.36087
     124.77000     190.36243       0.36099
     124.87000     190.14816       0.36078
     124.97000     189.64502       0.36031
     125.07000     190.09819       0.36074
     125.17000     190.21045       0.36084
     125.27000     189.26990       0.35995
     125.37000     190.01399       0.36066
     125.47000     190.10504       0.36074
     125.57000     190.55067       0.36116
     125.67000     189.66145       0.36032
     125.77000     190.77725       0.36138
     125.87000     190.64104       0.36125
     125.97000     190.15295       0.36079
     126.07000     190.44388       0.36106
     126.17000     191.67606       0.36223
     126.27000     191.77258       0.36232
     126.37000     191.55011       0.36211
     126.47000     192.14156       0.36267
     126.57000     192.50505       0.36301
     126.67000     192.57486       0.36308
     126.77000     192.99791       0.36348
     126.87000     192.69809       0.36319
     126.97000     192.98080       0.36346
     127.07000     193.88029       0.36431
     127.17000     195.02142       0.36538
     127.27000     195.16586       0.36551
     127.37000     193.77008       0.36420
     127.47000     195.87025       0.36617
     127.57000     195.17134       0.36552
     127.67000     196.04413       0.36633
     127.77000     196.44391       0.36671
     127.87000     197.50563       0.36770
     127.97000     197.44197       0.36764
     128.07001     198.42635       0.36855
     128.17000     197.51521       0.36771
     128.27000     199.08350       0.36916
     128.37000     200.17123       0.37017
     128.47000     199.55583       0.36960
     128.57001       0.00616       0.00205
     128.67000       0.00548       0.00194
