0.77	-0.00342	0.002465644
0.87	0.00137	0.002734703
0.97	0.01074	0.058902022
1.07	0.034	0.059305353
1.17	-0.08309	0.061286776
1.27	0.01471	0.063484086
1.37	-0.11545	0.067191912
1.47	0.05134	0.072634406
1.57	0.18918	0.083237108
1.67	-0.13968	0.155726452
1.77	-1.39266	0.329918121
1.87	-2.09843	0.470596323
1.97	-1.51584	0.531257385
2.07	-2.19592	0.542897271
2.17	-1.11344	0.543836342
2.27	-2.23491	0.54277712
2.37	-1.64148	0.542641893
2.47	-2.4132	0.539051019
2.57	-2.07492	0.533464351
2.67	-0.83766	0.531603194
2.77	-1.87127	0.532078112
2.87	-1.66118	0.53216265
2.97	-2.07015	0.530961201
3.07	-2.20667	0.53219888
3.17	-1.228	0.52984285
3.27	-1.89849	0.528931546
3.37	-2.32766	0.529094915
3.47	-2.36045	0.531336496
3.57	-2.48802	0.534914653
3.67	-1.20924	0.536397689
3.77	-2.15678	0.537466673
3.87	-2.50023	0.534497484
3.97	-1.81194	0.545237191
4.07	-1.93247	0.545456568
4.17	-0.56299	0.54811397
4.27	-1.08013	0.551975086
4.37	-1.8386	0.554875019
4.47	-1.02484	0.55728541
4.57	-1.51586	0.560658733
4.67	-2.27263	0.562370926
4.77	-1.93602	0.565142277
4.87	-0.81624	0.564943225
4.97	-0.34878	0.564943023
5.07	-1.9841	0.565736307
5.17	-1.37365	0.563600153
5.27	-1.30481	0.562221242
5.37	-2.35003	0.562597309
5.47	-1.81888	0.560015629
5.57	-1.00005	0.559088505
5.67	-1.33841	0.557674583
5.77	-1.41974	0.554817967
5.87	-0.8249	0.554612407
5.97	-0.32605	0.552533297
6.07	-1.19166	0.551840842
6.17	-1.24153	0.549104394
6.27	-1.42842	0.549231855
6.37	-0.14463	0.547505726
6.47	-1.80873	0.546022062
6.57	-1.84178	0.544240219
6.67	-1.84466	0.542331036
6.77	-1.20374	0.541191846
6.87	-0.68324	0.542513743
6.97	-1.05576	0.540668468
7.07	-1.17009	0.540838272
7.17	-0.72476	0.539162083
7.27	0.6494	0.539798366
7.37	-1.65891	0.538865979
7.47	-0.90438	0.537804573
7.57	-1.294	0.538413019
7.67	-0.81111	0.537118609
7.77	-0.99699	0.536065161
7.87	-1.2092	0.536185557
7.97	-0.74097	0.533385044
8.07	0.01249	0.533731271
8.17	-0.33191	0.534198024
8.27	-0.6093	0.534940602
8.37	-0.88704	0.534452872
8.47	-0.2059	0.533943431
8.57	-0.68872	0.532543554
8.67	-1.14715	0.532063076
8.77	0.19896	0.53257162
8.87	-0.16434	0.529651286
8.97	0.05488	0.531390746
9.07	0.13264	0.532331199
9.17	-1.2501	0.530592405
9.27	-0.27083	0.531143304
9.37	-0.09616	0.530591726
9.47	-0.24155	0.531638273
9.57	-0.63878	0.530153508
9.67	-0.96342	0.52845668
9.77	-0.37482	0.528399764
9.87	-1.00363	0.527813241
9.97	-0.58282	0.528194794
10.07	-0.7318	0.527374639
10.17	-1.10513	0.526073857
10.27	-0.87449	0.526080734
10.37	-0.99629	0.525981845
10.47	-0.76475	0.525217986
10.57	-0.21457	0.52557836
10.67	-0.51383	0.526172437
10.77	-0.90541	0.526526236
10.87	-0.70578	0.524821964
10.97	-1.96322	0.525417358
11.07	-1.74534	0.524526068
11.17	0.30077	0.525684415
11.27	-0.90924	0.522976563
11.37	-0.6481	0.524128974
11.47	-1.14508	0.524440495
11.57	-0.40549	0.525380431
11.67	-0.78564	0.526554425
11.77	0.00451	0.525309629
11.87	-0.44461	0.523287412
11.97	-0.53852	0.523810711
12.07	-0.85155	0.524751358
12.17	-1.01393	0.522828171
12.27	-1.70148	0.524306819
12.37	-0.48026	0.523478345
12.47	-0.75959	0.523832058
12.57	0.03403	0.522403419
12.67	-0.91521	0.522191683
12.77	-1.04767	0.523591865
12.87	-0.77796	0.52340073
12.97	0.19787	0.521448832
13.07	-1.2206	0.522694021
13.17	-1.31767	0.52230522
13.27	-1.15033	0.521074671
13.37	-0.77577	0.520353109
13.47	-0.5562	0.518267006
13.57	-0.49278	0.521689371
13.67	-0.61978	0.520558067
13.77	-1.66899	0.520559131
13.87	-1.20421	0.520311063
13.97	-1.10044	0.521272618
14.07	-0.90328	0.521116882
14.17	-0.55382	0.52214195
14.27	-1.82541	0.521945283
14.37	-1.27905	0.521244513
14.47	-1.66204	0.522666273
14.57	-0.94386	0.521930081
14.67	-1.03265	0.521208907
14.77	0.25069	0.52357723
14.87	-0.29582	0.522283266
14.97	-1.46626	0.522616529
15.07	-0.19541	0.522990345
15.17	-0.48917	0.523556132
15.27	-0.62105	0.522778381
15.37	-0.66624	0.522891544
15.47	-0.5685	0.523322824
15.57	-0.85629	0.522014864
15.67	-0.81483	0.523117918
15.77	-2.08165	0.522900287
15.87	-1.18693	0.522283855
15.97	-0.99074	0.523160482
16.07	-1.60155	0.524299611
16.17	-1.28579	0.523358771
16.27	-1.91809	0.522977794
16.37	-0.97295	0.523132179
16.47	-1.01289	0.524122165
16.57	-0.94506	0.523768557
16.67	-1.74584	0.523783624
16.77	-1.16069	0.523938461
16.87	-1.52176	0.522758006
16.97	-0.69159	0.522948125
17.07	-2.5937	0.523353856
17.17	-1.48904	0.523302435
17.27	-1.52117	0.523132786
17.37	-1.03043	0.523075668
17.47	-0.90884	0.524037222
17.57	-1.55901	0.523875289
17.67	-1.27797	0.524886096
17.77	-0.17769	0.525854125
17.87	-0.05573	0.525302562
17.97	-1.23935	0.526314403
18.07	-1.37219	0.526590331
18.17	-1.05327	0.526611218
18.27	-1.8245	0.526209108
18.37	-1.81954	0.525509058
18.47	-1.40083	0.526151951
18.57	-0.20308	0.526108688
18.67	-0.96979	0.526639426
18.77	-0.19506	0.526837006
18.87	-1.12852	0.526519365
18.97	-1.21786	0.527870014
19.07	-1.43537	0.527304572
19.17	-1.98572	0.527559902
19.27	-0.51721	0.528548315
19.37	0.60174	0.528873555
19.47	0.94105	0.531949654
19.57	2.49393	0.534737603
19.67	4.50322	0.537846923
19.77	4.33314	0.541551466
19.87	4.65905	0.54600712
19.97	2.9373	0.55242293
20.07	1.08235	0.562560342
20.17	1.74005	0.579036423
20.27	1.31665	0.596282346
20.37	0.10251	0.609526045
20.47	0.07794	0.615776869
20.57	-1.11953	0.608402132
20.67	-1.45072	0.592662208
20.77	-0.66072	0.573781971
20.87	0.09167	0.558890129
20.97	-0.73885	0.547979708
21.07	-0.47638	0.541863108
21.17	-0.37372	0.536955755
21.27	-1.82093	0.535740817
21.37	-1.38356	0.533060335
21.47	-1.33594	0.531639016
21.57	-1.99832	0.531201508
21.67	-1.36168	0.530684435
21.77	-1.81876	0.530197147
21.87	-1.97952	0.529964058
21.97	-2.05453	0.528960078
22.07	-2.29004	0.529172635
22.17	-1.1782	0.530465059
22.27	-1.46558	0.530189589
22.37	-1.15248	0.531525676
22.47	-1.36171	0.533286584
22.57	-2.62445	0.533239109
22.67	-1.50537	0.535563617
22.77	-1.57977	0.537267836
22.87	-0.91502	0.539162217
22.97	-1.63976	0.543843973
23.07	-1.403	0.548892421
23.17	-1.66577	0.560736681
23.27	-1.47746	0.576837243
23.37	-1.85552	0.604916715
23.47	-1.1384	0.649923388
23.57	-1.47348	0.7081113
23.67	-3.5606	0.765126697
23.77	-2.66318	0.798840659
23.87	-2.91879	0.791267747
23.97	-2.86209	0.744620073
24.07	-1.02073	0.678200504
24.17	-0.58511	0.619658999
24.27	-1.16471	0.579269422
24.37	-1.58546	0.557554627
24.47	-0.81892	0.545540239
24.57	-1.75856	0.540343962
24.67	-0.93865	0.535506503
24.77	-1.55063	0.533350445
24.87	-1.88159	0.532276101
24.97	-1.5832	0.529758405
25.07	-1.84708	0.528662779
25.17	-2.27704	0.526740198
25.27	-0.64075	0.524730008
25.37	-1.40756	0.525678203
25.47	-0.73418	0.523499696
25.57	-1.65075	0.524059255
25.67	-0.93806	0.523238218
25.77	-2.37066	0.523629152
25.87	-1.66377	0.524031001
25.97	-1.96303	0.522122287
26.07	-1.3848	0.522475002
26.17	-1.56763	0.522814631
26.27	-0.75157	0.51946214
26.37	-1.94614	0.520396916
26.47	-1.38785	0.521103217
26.57	-0.64992	0.52065001
26.67	-0.97067	0.519759292
26.77	-2.58008	0.521027464
26.87	-1.09213	0.520996836
26.97	-1.24712	0.522078874
27.07	-0.60245	0.522311679
27.17	-0.7839	0.520098551
27.27	-1.43315	0.519059748
27.37	-1.49611	0.518974978
27.47	-1.86583	0.519505858
27.57	-1.99988	0.519152521
27.67	-0.77307	0.520529878
27.77	-0.63903	0.520939917
27.87	-0.93178	0.520211803
27.97	-0.32141	0.52074178
28.07	-0.35609	0.51985084
28.17	-0.15682	0.519461876
28.27	-0.79521	0.521406705
28.37	-0.74572	0.520600574
28.47	-0.33331	0.521731737
28.57	0.20926	0.519815416
28.67	0.50088	0.51956093
28.77	-0.34445	0.519914476
28.87	1.11302	0.518599638
28.97	0.31261	0.519773007
29.07	0.11929	0.520953851
29.17	0.9262	0.521067294
29.27	1.10027	0.52020476
29.37	0.73285	0.519822664
29.47	0.93445	0.520911731
29.57	1.86811	0.520523854
29.67	1.11735	0.5203462
29.77	1.86738	0.520672362
29.87	1.8891	0.52135827
29.97	1.52609	0.519823369
30.07	0.91957	0.520268256
30.17	1.10348	0.520968434
30.27	0.0682	0.520020469
30.37	0.46773	0.520706428
30.47	-0.31806	0.520968054
30.57	0.3555	0.520635687
30.67	0.84328	0.521512706
30.77	1.5496	0.521456796
30.87	1.96292	0.521740206
30.97	2.51405	0.523657436
31.07	3.92239	0.524410573
31.17	5.71856	0.526036607
31.27	6.6955	0.527589886
31.37	6.89058	0.530079632
31.47	5.83206	0.534005656
31.57	4.2112	0.537061148
31.67	2.8733	0.541476974
31.77	0.41134	0.541799399
31.87	1.31527	0.540039232
31.97	0.53954	0.536086017
32.07	-0.13689	0.53183624
32.17	-0.22377	0.526688521
32.27	-0.91645	0.524270576
32.37	-0.80263	0.520975378
32.47	0.12011	0.52048009
32.57	-0.63193	0.517333674
32.67	-0.52612	0.518429625
32.77	-0.53517	0.513847585
32.87	-2.30609	0.517618686
32.97	-1.42706	0.514117094
33.07	-1.18374	0.515396666
33.17	-0.95858	0.518083441
33.27	-0.60475	0.512963743
33.37	-0.46945	0.516386061
33.47	-1.16576	0.512059104
33.57	-2.29917	0.517342895
33.67	-1.24956	0.510630844
33.77	-2.03951	0.516295895
33.87	-1.06665	0.51522683
33.97	-1.08051	0.515806678
34.07	-1.01528	0.515014658
34.17	-1.4031	0.514145351
34.27	-1.59654	0.513169805
34.37	-1.35917	0.516231246
34.47	-0.78766	0.513593188
34.57	-1.26422	0.514343161
34.67	-0.86276	0.515417571
34.77	-0.23629	0.514618211
34.87	-1.6721	0.516804418
34.97	-0.44189	0.515693087
35.07	-0.86165	0.516442884
35.17	-0.57682	0.513423344
35.27	-0.90471	0.516259071
35.37	-1.10135	0.514406629
35.47	-1.06961	0.516040012
35.57	-0.26984	0.517220376
35.67	-0.90973	0.519660243
35.77	-0.99624	0.512921604
35.87	0.02062	0.51876182
35.97	-1.23842	0.515078527
36.07	-0.90035	0.51524082
36.17	-0.17838	0.515643504
36.27	-0.54744	0.516216397
36.37	-0.38979	0.515318299
36.47	-0.16418	0.516286969
36.57	0.62047	0.517715431
36.67	0.75348	0.516866971
36.77	1.00394	0.517022711
36.87	0.7735	0.516230588
36.97	1.27071	0.517581567
37.07	0.11145	0.517050621
37.17	0.7437	0.517609427
37.27	0.76286	0.517595297
37.37	0.54272	0.519256887
37.47	0.52646	0.518634625
37.57	0.99767	0.520006682
37.67	2.56481	0.518135113
37.77	1.85208	0.519045989
37.87	1.24638	0.518932108
37.97	2.29161	0.518580057
38.07	1.74746	0.518706423
38.17	2.19714	0.51864352
38.27	2.03902	0.518664456
38.37	2.14533	0.517858539
38.47	2.82032	0.519882199
38.57	1.27932	0.518628084
38.67	1.93933	0.520389619
38.77	2.2722	0.519449735
38.87	1.16322	0.520275527
38.97	-0.03386	0.520345743
39.07	1.48758	0.517935358
39.17	0.81642	0.519511588
39.27	0.68227	0.522156082
39.37	-0.95167	0.522905887
39.47	0.10962	0.523845917
39.57	-0.06778	0.526900626
39.67	0.23865	0.527593593
39.77	-0.84616	0.530146571
39.87	-2.39136	0.53428514
39.97	-1.90956	0.539410805
40.07	-1.06195	0.545773756
40.17	-1.09733	0.552300374
40.27	-1.48724	0.55395537
40.37	-0.12343	0.554810137
40.47	-1.1989	0.553212628
40.57	0.03676	0.547427929
40.67	0.55208	0.540229662
40.77	-0.66454	0.536701327
40.87	0.54419	0.534070767
40.97	-1.4924	0.533173601
41.07	-1.65475	0.533732424
41.17	-0.63136	0.535534583
41.27	-1.29501	0.542104111
41.37	-0.02052	0.546685469
41.47	-1.28993	0.558070519
41.57	-1.05683	0.573280154
41.67	-0.98706	0.593828601
41.77	-0.48251	0.617700285
41.87	-1.07373	0.642746223
41.97	-1.3804	0.659278537
42.07	-0.72225	0.668152408
42.17	-1.09561	0.661116849
42.27	-0.47302	0.645454213
42.37	-0.51608	0.620005461
42.47	-0.44851	0.592018163
42.57	-0.82304	0.569511133
42.67	-0.87397	0.551458756
42.77	-0.84514	0.54134712
42.87	-1.53053	0.534990902
42.97	-0.71115	0.53203445
43.07	-1.36163	0.530493529
43.17	-0.96708	0.529375918
43.27	-0.27756	0.528194672
43.37	-1.2686	0.528159984
43.47	-0.51198	0.526964396
43.57	-0.34131	0.528548245
43.67	-1.57871	0.528400763
43.77	-1.21698	0.52958827
43.87	-1.22557	0.531009564
43.97	-1.84911	0.531109361
44.07	-0.64314	0.531079824
44.17	-0.62332	0.531129303
44.27	-0.82955	0.531928463
44.37	-0.67163	0.532635471
44.47	-1.64664	0.534064749
44.57	-1.69477	0.534870908
44.67	-1.50854	0.534651465
44.77	-0.89714	0.536347917
44.87	-0.53272	0.537747777
44.97	-1.32027	0.539346422
45.07	-1.46379	0.543546775
45.17	-1.03009	0.546820255
45.27	-1.22333	0.5524914
45.37	-2.58615	0.557789434
45.47	-1.96804	0.564654421
45.57	-1.37926	0.573421843
45.67	-3.45472	0.581394009
45.77	-2.47781	0.591920949
45.87	-1.98291	0.600723727
45.97	-1.21964	0.606874849
46.07	-1.82895	0.611761447
46.17	0.56921	0.614150583
46.27	0.70707	0.615366841
46.37	-0.11218	0.61537383
46.47	-1.87104	0.615049526
46.57	-1.82327	0.615516166
46.67	-0.47175	0.618244754
46.77	-1.20193	0.622360443
46.87	-3.81854	0.628869018
46.97	-1.72131	0.638907088
47.07	-4.30863	0.649856509
47.17	-2.90253	0.663267985
47.27	-3.50724	0.676222856
47.37	-1.4282	0.684783854
47.47	0.43319	0.689386703
47.57	-0.52027	0.689492825
47.67	1.80303	0.682591908
47.77	2.7995	0.670967941
47.87	2.35077	0.658176014
47.97	2.15298	0.645822743
48.07	1.64996	0.635293564
48.17	1.29325	0.627303047
48.27	-0.24875	0.623038885
48.37	-0.62574	0.62037319
48.47	-0.36712	0.620726669
48.57	0.50519	0.621773176
48.67	1.65762	0.622261627
48.77	-0.98318	0.625280667
48.87	0.36279	0.626171355
48.97	1.86658	0.623725513
49.07	0.06995	0.619411398
49.17	1.50034	0.610933692
49.27	1.30682	0.601564422
49.37	0.90208	0.588942358
49.47	0.00433	0.576808217
49.57	0.63808	0.565247121
49.67	0.50336	0.555298088
49.77	-0.7773	0.548425205
49.87	-0.1104	0.542492334
49.97	-0.19291	0.538956815
50.07	-1.01521	0.535124719
50.17	-0.51117	0.534014244
50.27	0.60869	0.530973666
50.37	-1.04936	0.529913393
50.47	-0.89514	0.529043517
50.57	-1.21569	0.527332613
50.67	-1.71378	0.526753402
50.77	-0.93547	0.526321201
50.87	0.05239	0.525408623
50.97	-0.02815	0.52463788
51.07	-1.04994	0.524405047
51.17	-0.24072	0.523563114
51.27	0.06951	0.522863038
51.37	-0.7704	0.520713726
51.47	-0.27588	0.521915564
51.57	0.27474	0.520663954
51.67	0.70775	0.518988267
51.77	-1.02252	0.519151219
51.87	0.20651	0.517298116
51.97	0.05205	0.516456651
52.07	0.24547	0.517510254
52.17	-0.41878	0.516272906
52.27	-0.5858	0.516364907
52.37	0.27044	0.51621625
52.47	1.11787	0.51575709
52.57	-0.44746	0.516025432
52.67	0.0726	0.516400082
52.77	0.70053	0.515191099
52.87	0.05789	0.515077793
52.97	0.8495	0.516110427
53.07	1.12872	0.51616015
53.17	1.22914	0.516846134
53.27	1.33308	0.517235141
53.37	2.60085	0.516424015
53.47	1.2561	0.515891573
53.57	2.41922	0.517406513
53.67	2.06794	0.51799276
53.77	2.19383	0.518162689
53.87	2.051	0.517427041
53.97	1.17036	0.516584454
54.07	1.17026	0.516973352
54.17	0.19404	0.51521215
54.27	0.6095	0.515205198
54.37	0.60443	0.513677848
54.47	-0.31161	0.514780867
54.57	0.61805	0.513897056
54.67	0.57287	0.513911179
54.77	0.13295	0.513394881
54.87	0.70837	0.514010236
54.97	0.1533	0.514052491
55.07	0.67481	0.514158712
55.17	-0.67729	0.512935498
55.27	-0.93581	0.514752962
55.37	-1.24022	0.514173432
55.47	-0.3234	0.512701981
55.57	-0.24858	0.514547506
55.67	-0.54588	0.515481007
55.77	-0.53481	0.515063808
55.87	0.19278	0.51481617
55.97	-0.38694	0.514894035
56.07	-0.64665	0.516124528
56.17	-0.17992	0.516223331
56.27	-0.9133	0.517659141
56.37	-0.12859	0.518832545
56.47	0.08241	0.51810421
56.57	-1.02588	0.518875457
56.67	-1.21188	0.518324107
56.77	-0.2735	0.518125472
56.87	-0.6137	0.518288249
56.97	-0.133	0.519956847
57.07	-0.77017	0.519907624
57.17	-0.20044	0.521399357
57.27	0.23835	0.521116495
57.37	0.3773	0.521045814
57.47	0.29753	0.519907355
57.57	0.73069	0.520119649
57.67	0.91061	0.520501594
57.77	-0.47812	0.520635777
57.87	-0.62349	0.521618727
57.97	-0.07001	0.522417569
58.07	0.91872	0.523457299
58.17	0.27893	0.522870127
58.27	0.40224	0.525069254
58.37	0.85861	0.525507864
58.47	0.24549	0.527614808
58.57	0.29399	0.527933015
58.67	0.21562	0.529227009
58.77	0.61053	0.529248326
58.87	0.04657	0.529255284
58.97	-0.53247	0.526773482
59.07	0.47392	0.528258328
59.17	-0.00528	0.528640103
59.27	-0.59365	0.527777607
59.37	-1.45709	0.526668203
59.47	-0.44749	0.526398682
59.57	-0.23864	0.525981419
59.67	-0.76453	0.526900899
59.77	-0.97384	0.526455578
59.87	-0.84224	0.525776654
59.97	-0.48819	0.52499863
60.07	0.49614	0.52451067
60.17	-0.56027	0.523266255
60.27	-0.97455	0.521463409
60.37	-0.98601	0.52081289
60.47	0.3395	0.521583205
60.57	-0.5357	0.520954
60.67	-0.27411	0.520416498
60.77	-0.82093	0.52035314
60.87	-0.45073	0.520543839
60.97	-1.39476	0.518819279
61.07	-0.53894	0.520282255
61.17	0.06052	0.518090068
61.27	-0.61896	0.51746094
61.37	-0.52707	0.516824498
61.47	-0.42272	0.515565799
61.57	-1.24739	0.515410879
61.67	-0.47844	0.514059685
61.77	-0.09619	0.515403073
61.87	-0.46051	0.513571777
61.97	-0.81891	0.512695187
62.07	-0.52409	0.513288965
62.17	-0.58481	0.512567751
62.27	-0.0973	0.511874611
62.37	-0.87	0.511740636
62.47	-0.44294	0.511867645
62.57	-0.94722	0.511309364
62.67	-0.55191	0.512362672
62.77	-0.53964	0.512617219
62.87	-1.23074	0.511974321
62.97	-0.45975	0.513288934
63.07	-0.98306	0.512313493
63.17	-0.08047	0.512935269
63.27	-0.22072	0.512666597
63.37	-0.93601	0.512893263
63.47	-0.61916	0.513098099
63.57	-0.25427	0.512737313
63.67	-0.72516	0.51276582
63.77	-1.08411	0.51134485
63.87	-0.6369	0.512893045
63.97	-0.59853	0.512673823
64.07	-0.43157	0.512871727
64.17	-1.40952	0.512504866
64.27	-1.34915	0.514597819
64.37	-1.35074	0.515418062
64.47	-1.00156	0.517517794
64.57	0.58635	0.517333575
64.67	-0.93318	0.517744012
64.77	-0.76692	0.520529878
64.87	-0.80287	0.521838048
64.97	-1.57744	0.523712669
65.07	-0.93057	0.523351355
65.17	-1.43004	0.52528225
65.27	0.35611	0.526073335
65.37	0.15371	0.530379586
65.47	-0.86015	0.533724529
65.57	0.01061	0.538150689
65.67	-0.96565	0.54646665
65.77	0.35706	0.554767722
65.87	-0.22014	0.565049059
65.97	-0.66432	0.576709392
66.07	1.03834	0.591028389
66.17	-1.26978	0.605191972
66.27	-1.5563	0.619687841
66.37	0.14178	0.63240095
66.47	-0.92581	0.642449174
66.57	-0.05221	0.647851238
66.67	-0.62948	0.650828269
66.77	-0.48999	0.647094707
66.87	0.14212	0.639698292
66.97	-0.88721	0.629007073
67.07	-0.28858	0.614772814
67.17	1.02155	0.596727655
67.27	-0.84243	0.58184307
67.37	-0.16437	0.566229917
67.47	-0.03746	0.553367629
67.57	-0.41119	0.543722777
67.67	0.87836	0.535965976
67.77	-0.00676	0.529064367
67.87	-0.27109	0.524496501
67.97	0.59819	0.521738854
68.07	0.32138	0.520310408
68.17	0.08741	0.517276895
68.27	0.37071	0.514957623
68.37	0.49082	0.513614159
68.47	-0.088	0.512892842
68.57	0.33848	0.512574665
68.67	0.11704	0.511386696
68.77	-0.95966	0.511698282
68.87	0.35903	0.509880596
68.97	-0.96823	0.510545708
69.07	0.32537	0.510425061
69.17	0.59654	0.50984533
69.27	-0.03552	0.511146283
69.37	-0.76602	0.509407103
69.47	-0.32075	0.510453381
69.57	-0.26983	0.509456344
69.67	-0.30995	0.508423982
69.77	-0.24765	0.508324967
69.87	-0.23329	0.508388604
69.97	0.39493	0.508713879
70.07	0.46346	0.508402772
70.17	0.33844	0.507518854
70.27	-0.4324	0.508176539
70.37	0.3363	0.507844124
70.47	0.33767	0.507787555
70.57	0.01515	0.508374422
70.67	-0.00925	0.507483468
70.77	-0.24657	0.506825901
70.87	-0.79773	0.507589863
70.97	0.37704	0.506401637
71.07	0.68237	0.506125993
71.17	0.28118	0.506663244
71.27	0.30158	0.507115796
71.37	0.16215	0.506323815
71.47	0.44689	0.506295594
71.57	0.18132	0.506337959
71.67	-0.48596	0.506239097
71.77	0.41721	0.50726432
71.87	-0.23098	0.507462291
71.97	-0.19683	0.507738055
72.07	0.17099	0.509215882
72.17	-0.34511	0.509378587
72.27	-0.31793	0.510184681
72.37	0.2521	0.510509897
72.47	0.35065	0.510524061
72.57	0.02246	0.5118746
72.67	-0.88051	0.510057723
72.77	0.45849	0.511754458
72.87	0.31946	0.509413896
72.97	0.10875	0.509060315
73.07	-0.15219	0.509732087
73.17	0.17029	0.509329019
73.27	0.41537	0.50901087
73.37	-0.62563	0.509018101
73.47	-0.15268	0.508996696
73.57	0.30861	0.509024985
73.67	0.15321	0.509159312
73.77	-0.19466	0.509873517
73.87	-0.55204	0.510368632
73.97	-0.22336	0.509647248
74.07	-0.33504	0.510149329
74.17	-0.14401	0.509852293
74.27	-0.47737	0.510000893
74.37	-0.38163	0.507674471
74.47	0.71031	0.509208989
74.57	0.10349	0.508218857
74.67	-0.63569	0.508190793
74.77	0.01063	0.50737033
74.87	0.28015	0.507886536
74.97	-0.33033	0.507872446
75.07	-0.15144	0.506861234
75.17	0.54141	0.506041068
75.27	-0.36336	0.505828919
75.37	-0.25078	0.507221881
75.47	-0.32742	0.507165339
75.57	-0.84486	0.507257565
75.67	-0.7524	0.506925151
75.77	-0.79148	0.507292878
75.87	-0.19199	0.507490565
75.97	0.37035	0.508515883
76.07	0.23066	0.5087492
76.17	-0.29088	0.508805812
76.27	-0.07066	0.509413877
76.37	-0.98735	0.510319454
76.47	0.55252	0.510700905
76.57	-0.99016	0.510630581
76.67	0.03953	0.51201602
76.77	-0.42964	0.513324275
76.87	-1.26976	0.511939026
76.97	-0.81734	0.514484158
77.07	-0.54672	0.513458682
77.17	-0.12947	0.51441313
77.27	0.32441	0.514052516
77.37	-0.93141	0.51367108
77.47	-0.97215	0.512398326
77.57	0.17824	0.51290698
77.67	-0.70853	0.511980925
77.77	0.10769	0.513090823
77.87	-0.88785	0.511945705
77.97	0.2098	0.512659496
78.07	-0.30581	0.51089178
78.17	-0.60146	0.51086363
78.27	-0.58665	0.511804076
78.37	-1.03859	0.510029591
78.47	-0.38924	0.513253547
78.57	-0.26083	0.511655443
78.67	-0.54339	0.511224225
78.77	0.50695	0.512178737
78.87	-0.62147	0.511485897
78.97	-0.78329	0.512610302
79.07	-1.15531	0.511479277
79.17	-1.17199	0.512363171
79.27	-0.19516	0.511726137
79.37	-0.99924	0.511288199
79.47	-0.24112	0.512164554
79.57	-0.54551	0.511535352
79.67	0.06698	0.511704893
79.77	0.1882	0.5114362
79.87	-0.52489	0.511139361
79.97	-0.07542	0.511888751
80.07	-0.33279	0.512016091
80.17	0.01782	0.511287701
80.27	-0.82843	0.512433566
80.37	0.02593	0.511719036
80.47	-0.03557	0.511301846
80.57	0.64598	0.511818173
80.67	-0.5369	0.512574793
80.77	-0.33835	0.512313076
80.87	0.02081	0.512906976
80.97	-0.18785	0.51262416
81.07	-0.25438	0.513182793
81.17	0.01396	0.512949403
81.27	0.21645	0.513345391
81.37	-0.20856	0.513260561
81.47	-1.03626	0.514123724
81.57	-0.35287	0.512864626
81.67	-0.21878	0.513069645
81.77	-0.62877	0.513182952
81.87	-0.91365	0.513741773
81.97	0.71939	0.513706187
82.07	0.21861	0.512906984
82.17	0.01891	0.512390788
82.27	-0.55465	0.512447525
82.37	0.6523	0.511174711
82.47	-0.30408	0.51215043
82.57	-0.12165	0.510672533
82.67	-0.10746	0.511365495
82.77	0.71555	0.510177731
82.87	-0.8068	0.510842552
82.97	0.58946	0.510700924
83.07	-7E-05	0.509003747
83.17	-1.25212	0.509959106
83.27	0.90003	0.508770707
83.37	1.01242	0.508141474
83.47	0.95053	0.50925865
83.57	0.44851	0.507950224
83.67	0.56355	0.507709849
83.77	-0.93026	0.506621241
83.87	0.02336	0.508409776
83.97	0.17896	0.507525898
84.07	-0.25851	0.508049199
84.17	-0.03856	0.506981425
84.27	0.20009	0.507865312
84.37	0.04967	0.507250121
84.47	-0.19513	0.509067416
84.57	1.12547	0.5076961
84.67	0.16431	0.508586556
84.77	-0.37466	0.509880644
84.87	0.54945	0.509286692
84.97	0.47817	0.509689714
85.07	-0.6583	0.510927302
85.17	-0.31505	0.512171647
85.27	-0.4426	0.513175788
85.37	-1.04762	0.513112573
85.47	-0.3791	0.513713162
85.57	-0.44659	0.515325392
85.67	-1.01355	0.516322794
85.77	-1.05421	0.517326925
85.87	-0.44412	0.518945778
85.97	-1.54422	0.519795277
86.07	-1.11725	0.52275048
86.17	-1.75576	0.525021074
86.27	-1.48802	0.527170288
86.37	-1.46432	0.530613852
86.47	-0.90522	0.53339223
86.57	-1.03951	0.536355102
86.67	-1.26253	0.540979779
86.77	-1.13296	0.542712053
86.87	-1.42317	0.547605512
86.97	-1.81207	0.550597017
87.07	-1.99133	0.552810492
87.17	-1.69632	0.557512334
87.27	-1.76927	0.558912487
87.37	-0.12073	0.559696243
87.47	-1.19841	0.56108977
87.57	1.01779	0.560969315
87.67	0.09892	0.559865936
87.77	1.60717	0.558226241
87.87	1.32649	0.556118804
87.97	1.64828	0.553255348
88.07	1.51343	0.550964182
88.17	0.75677	0.547385666
88.27	1.88658	0.545534055
88.37	1.48921	0.542139501
88.47	0.71262	0.538850873
88.57	1.00204	0.536694376
88.67	1.49831	0.533958323
88.77	0.10051	0.53221099
88.87	1.1624	0.530938669
88.97	1.10648	0.530217365
89.07	-0.70217	0.52917774
89.17	0.33467	0.529410874
89.27	-0.48728	0.529220051
89.37	0.12103	0.529750259
89.47	-0.96358	0.531518441
89.57	0.05687	0.531624091
89.67	0.20615	0.533851484
89.77	-0.52053	0.535668873
89.87	0.092	0.538334535
89.97	-0.81762	0.540880415
90.07	0.03151	0.544132811
90.17	-0.4214	0.545999661
90.27	-0.93912	0.549457685
90.37	-0.66501	0.553120328
90.47	-0.98801	0.557773288
90.57	-1.15083	0.559915935
90.67	0.09785	0.563578247
90.77	-0.53021	0.567538164
90.87	-1.29507	0.568761941
90.97	0.65227	0.57286973
91.07	-0.11997	0.573597962
91.17	-0.90512	0.573987166
91.27	-0.54885	0.575061788
91.37	-0.12426	0.57417779
91.47	0.63723	0.572834371
91.57	0.80191	0.571370721
91.67	0.20759	0.567538049
91.77	-0.35353	0.564801602
91.87	-0.12346	0.562072122
91.97	-0.41357	0.559406396
92.07	0.39498	0.556153661
92.17	-0.51241	0.553155615
92.27	0.35621	0.550461444
92.37	0.23627	0.546211713
92.47	-0.43483	0.545094573
92.57	-0.2934	0.543482319
92.67	0.64915	0.540646894
92.77	-0.24005	0.538666914
92.87	-1.18303	0.538087641
92.97	-0.544	0.536446701
93.07	-0.00878	0.536382923
93.17	0.28106	0.535279848
93.27	-1.43029	0.533838202
93.37	-0.17403	0.53252214
93.47	0.42267	0.530429129
93.57	-0.10476	0.532027154
93.67	0.32986	0.531949385
93.77	0.28394	0.529693709
93.87	-0.36523	0.528420973
93.97	-0.51849	0.52825133
94.07	0.35017	0.527692607
94.17	1.52415	0.52703582
94.27	0.75731	0.525543162
94.37	0.5563	0.524772319
94.47	0.02534	0.524199471
94.57	1.04472	0.52316041
94.67	-0.21848	0.52224789
94.77	0.83725	0.520975305
94.87	0.16286	0.519285081
94.97	0.725	0.518380167
95.07	-0.26461	0.518189109
95.17	0.63598	0.51608202
95.27	0.20761	0.515728339
95.37	0.23374	0.515282866
95.47	-0.09735	0.514575759
95.57	0.66794	0.51421528
95.67	0.73632	0.514441589
95.77	-0.31868	0.512977749
95.87	0.46298	0.515403128
95.97	-0.02606	0.5141727
96.07	-0.3418	0.515014223
96.17	-0.78318	0.514830616
96.27	0.30871	0.516463748
96.37	-0.78668	0.515092253
96.47	-0.4768	0.515657746
96.57	0.15708	0.515254572
96.67	-1.19646	0.516909873
96.77	0.00412	0.516499079
96.87	-0.14065	0.515318226
96.97	-0.26637	0.514505086
97.07	-1.23276	0.514420907
97.17	-0.68292	0.513494119
97.27	-0.528	0.512610143
97.37	-0.10802	0.510948303
97.47	-0.60764	0.510898992
97.57	0.18275	0.50872798
97.67	-0.62711	0.509414081
97.77	-0.68737	0.506932171
97.87	-0.71262	0.506663499
97.97	-0.39154	0.506373404
98.07	-1.19034	0.506628577
98.17	-0.50748	0.504782468
98.27	0.21243	0.505114668
98.37	-0.65172	0.504089589
98.47	-0.38695	0.504471283
98.57	-0.98053	0.505171721
98.67	-0.3954	0.505397597
98.77	-1.20319	0.503418341
98.87	0.4475	0.503976284
98.97	0.46177	0.504294486
99.07	-0.81201	0.504620033
99.17	-0.25357	0.504803576
99.27	-0.40488	0.504966266
99.37	-0.07355	0.504725758
99.47	-0.38917	0.50515718
99.57	-0.19797	0.504131811
99.67	-0.58944	0.504032982
99.77	-0.2097	0.504513653
99.87	0.18057	0.503976222
99.97	0.18383	0.504598476
100.07	0.0325	0.504853029
100.17	-0.23681	0.503495425
100.27	0.17648	0.503870155
100.37	0.00798	0.504435837
100.47	-0.39522	0.504718774
100.57	0.85178	0.504768454
100.67	-0.00824	0.503622665
100.77	-0.3636	0.504202574
100.87	-0.07632	0.504909605
100.97	-0.22765	0.505142981
101.07	-0.67118	0.5052634
101.17	1.08889	0.506218219
101.27	-0.88546	0.505475692
101.37	0.06007	0.506762217
101.47	0.26061	0.506762235
101.57	0.08533	0.506995562
101.67	0.55589	0.508240174
101.77	0.30903	0.507384497
101.87	-0.15536	0.50882699
101.97	-0.39912	0.509166479
102.07	0.18669	0.509371448
102.17	-0.97538	0.509082008
102.27	-0.25555	0.509824033
102.37	-0.55898	0.510686836
102.47	-0.60902	0.510927276
102.57	-0.75806	0.510312199
102.67	-1.1089	0.511896414
102.77	-0.23664	0.510722056
102.87	-0.20971	0.512482744
102.97	-1.57798	0.512830364
103.07	0.18128	0.511740255
103.17	-0.82065	0.51145068
103.27	-0.6542	0.513628449
103.37	-0.93003	0.513642796
103.47	-0.14041	0.514434345
103.57	0.31299	0.515799067
103.67	0.18564	0.516025322
103.77	-0.26683	0.516195068
103.87	0.14124	0.515678835
103.97	-0.00863	0.515586912
104.07	-0.82877	0.516343855
104.17	-0.56821	0.517114428
104.27	-0.53448	0.516442661
104.37	0.2099	0.517404183
104.47	0.25799	0.516668799
104.57	-0.02197	0.516831421
104.67	-0.83081	0.516287287
104.77	0.42911	0.516640555
104.87	0.02726	0.517064763
104.97	-0.09183	0.517001134
105.07	0.16992	0.51589097
105.17	0.19242	0.516251596
105.27	0.61168	0.514710223
105.37	0.26878	0.514780825
105.47	-0.13995	0.515289942
105.57	-1.2568	0.514774483
105.67	-0.14742	0.514971746
105.77	0.48157	0.514993014
105.87	-0.13353	0.514257566
105.97	-0.1261	0.514646473
106.07	-0.61532	0.514066829
106.17	-1.00755	0.514300471
106.27	-0.22583	0.51388282
106.37	0.1395	0.514469683
106.47	0.58829	0.515191046
106.57	-0.69361	0.515085115
106.67	0.02916	0.515028296
106.77	0.56798	0.514356651
106.87	0.67201	0.514342559
106.97	0.03971	0.513918138
107.07	-0.16909	0.514123222
107.17	-0.96709	0.513975164
107.27	0.35768	0.512447391
107.37	0.53021	0.512242389
107.47	0.32552	0.512369602
107.57	0.57608	0.512115128
107.67	0.78544	0.512426368
107.77	0.86286	0.512186008
107.87	-0.39611	0.510743323
107.97	-1.05713	0.510213459
108.07	0.20998	0.509314882
108.17	0.02959	0.50816936
108.27	-0.48262	0.509159442
108.37	0.49366	0.508049234
108.47	1.42874	0.507420659
108.57	0.26234	0.505305595
108.67	-0.05751	0.506189467
108.77	0.72574	0.505136068
108.87	-0.05023	0.504527765
108.97	0.12517	0.503785299
109.07	0.69726	0.50410368
109.17	0.05318	0.501642764
109.27	0.82233	0.502194572
109.37	-0.95944	0.500370461
109.47	-0.20191	0.500815483
109.57	-0.2666	0.499542708
109.67	1.04329	0.499946159
109.77	-0.112	0.499917438
109.87	0.79085	0.499493411
109.97	0.03517	0.499846713
110.07	0.29674	0.499372975
110.17	-0.83589	0.498984422
110.27	0.10453	0.498976972
110.37	-0.33343	0.498602281
110.47	0.66025	0.49904785
110.57	-0.51285	0.499061981
110.67	0.23922	0.499479031
110.77	-0.00303	0.49935174
110.87	-0.80313	0.499316736
110.97	0.50137	0.499344755
111.07	0.59207	0.500652944
111.17	-0.07799	0.500688179
111.27	-0.37785	0.501034744
111.37	0.49525	0.501904481
111.47	-0.49025	0.501628762
111.57	-1.10989	0.499939286
111.67	-0.62552	0.500660103
111.77	-0.40384	0.500942834
111.87	-0.64795	0.500073225
111.97	-0.5412	0.500186298
112.07	0.12191	0.500511394
112.17	-0.71906	0.499783362
112.27	-0.02241	0.50013663
112.37	-0.63365	0.500327769
112.47	0.16709	0.500532611
112.57	-0.2359	0.49727996
112.67	-0.99095	0.497803696
112.77	0.20531	0.49824159
112.87	-0.76223	0.497365089
112.97	-0.23603	0.497739577
113.07	0.42871	0.497124417
113.17	0.13213	0.495349516
113.27	0.61601	0.495399158
113.37	0.23161	0.494423216
113.47	-0.12969	0.494105024
113.57	-0.06723	0.493412049
113.67	-0.79343	0.493504322
113.77	0.28952	0.492726172
113.87	-0.24591	0.49363129
113.97	-0.58789	0.492641502
114.07	-0.84054	0.493065951
114.17	-0.30585	0.492464587
114.27	-0.26885	0.492266583
114.37	-0.33165	0.491623134
114.47	-1.2303	0.491588526
114.57	0.05185	0.490739177
114.67	-0.50086	0.492252539
114.77	-0.8992	0.492302332
114.87	-0.1017	0.4916655
114.97	0.40268	0.491828177
115.07	-0.35316	0.492818156
115.17	0.04268	0.491835193
115.27	-1.18134	0.492868324
115.37	0.0612	0.491679629
115.47	-0.53787	0.492464694
115.57	-0.0638	0.493334266
115.67	0.36947	0.493221168
115.77	-0.66339	0.493539575
115.87	0.08023	0.49214632
115.97	0.40634	0.493610086
116.07	0.10018	0.494451489
116.17	-0.33699	0.493779813
116.27	-0.19071	0.494486875
116.37	0.13069	0.495639429
116.47	-0.51108	0.494762773
116.57	0.48822	0.494543497
116.67	0.00958	0.495462652
116.77	-0.6166	0.495264887
116.87	-0.41542	0.495384976
116.97	0.27469	0.494529292
117.07	-0.81016	0.494784193
117.17	0.15939	0.49583035
117.27	-0.30186	0.495660702
117.37	0.64335	0.495533525
117.47	0.46595	0.496127408
117.57	0.05103	0.496693016
117.67	-0.3091	0.497110274
117.77	-0.3125	0.497053706
117.87	0.51062	0.495335465
117.97	0.12647	0.496120262
118.07	-0.4102	0.496445635
118.17	-0.15639	0.49683446
118.27	0.23346	0.497895112
118.37	-0.11287	0.497923397
118.47	-0.126	0.498411302
118.57	-0.45796	0.498460914
118.67	-0.54037	0.499620613
118.77	0.82673	0.498312566
118.87	-0.02871	0.497994097
118.97	0.36329	0.498715384
119.07	-0.66695	0.499408559
119.17	-0.07444	0.500221489
119.27	-0.48897	0.499366021
119.37	0.01387	0.500101272
119.47	-0.58983	0.500313601
119.57	-0.06928	0.501416498
119.67	0.00812	0.501218501
119.77	-0.08216	0.500914454
119.87	0.05101	0.50208117
119.97	-0.52655	0.501699494
120.07	-1.26949	0.503015378
120.17	-0.35739	0.501331721
120.27	-0.30221	0.502371148
120.37	-0.1976	0.502724671
120.47	-0.31994	0.502081238
120.57	-0.37378	0.503856096
120.67	-0.29974	0.503325739
120.77	0.52822	0.504138947
120.87	0.42825	0.504244977
120.97	-0.84652	0.505772642
121.07	0.06319	0.50532679
121.17	-0.98349	0.506055614
121.27	-0.17731	0.506337979
121.37	-0.27992	0.506111732
121.47	0.4172	0.50726432
121.57	-0.41944	0.50840988
121.67	0.09531	0.508134004
121.77	0.65029	0.508438214
121.87	0.06354	0.509258304
121.97	-0.42163	0.508890712
122.07	-0.54376	0.510036286
122.17	-0.42738	0.509958448
122.27	0.21536	0.50969672
122.37	0.61359	0.51007868
122.47	-0.91043	0.509350652
122.57	0.52182	0.510326126
122.67	0.86784	0.511408191
122.77	0.07666	0.511400837
122.87	0.76408	0.510361604
122.97	-0.01894	0.510502815
123.07	-0.43219	0.510000874
123.17	0.16384	0.510410892
123.27	0.34781	0.510898825
123.37	0.34314	0.510446276
123.47	-1.4083	0.510447203
123.57	1.06446	0.510736599
123.67	0.91744	0.510184935
123.77	0.03546	0.50929366
123.87	-0.33175	0.510587735
123.97	-0.24272	0.510439213
124.07	0.21776	0.51095537
124.17	-0.0544	0.510029056
124.27	0.05272	0.511308914
124.37	-0.55043	0.509357464
124.47	-0.04289	0.510559385
124.57	-0.30711	0.510658439
124.67	0.21036	0.510446253
124.77	-0.50888	0.510128193
124.87	0.32947	0.510396776
124.97	-0.20206	0.509371474
125.07	0.27406	0.510297768
125.17	-0.85507	0.50969001
125.27	0.28802	0.509194686
125.37	0.14612	0.510099763
125.47	-0.55668	0.509746378
125.57	-0.22222	0.510566487
125.67	0.01487	0.509534077
125.77	-0.52133	0.510672671
125.87	0.56674	0.511217098
125.97	0.76606	0.510701015
126.07	0.11723	0.510651305
126.17	0.62455	0.512645482
126.27	-0.92543	0.511733609
126.37	-0.21504	0.51190999
126.47	0.21312	0.512991837
126.57	-1.51215	0.51232116
126.67	0.36147	0.513663615
126.77	-0.51254	0.513649584
126.87	0.04594	0.513614082
126.97	0.35927	0.514201016
127.07	-0.44236	0.514872844
127.17	-0.71512	0.516202358
127.27	-0.5393	0.516506306
127.37	0.47669	0.515332425
127.47	-0.61003	0.517397295
127.57	0.43924	0.517163814
127.67	-0.60188	0.517630634
127.77	-0.19418	0.518429509
127.87	0.03537	0.519985114
127.97	0.4973	0.520204394
128.07001	0.12742	0.521250837
128.17	0.55202	0.520331689
128.27	0.27432	0.522205446
128.37	0.63253	0.523867259
128.47	0.58689	0.523032854
128.57001	-0.00411	0.002370359
128.67	-0.00206	0.002470729
