2.0110 75.0
2.0240 68.0
2.0370 55.0
2.0500 43.0
2.0630 56.0
2.0760 46.0
2.0890 41.0
2.1020 46.0
2.1150 51.0
2.1280 44.0
2.1410 44.0
2.1540 40.0
2.1670 40.0
2.1800 57.0
2.1930 47.0
2.2060 50.0
2.2190 52.0
2.2320 51.0
2.2450 41.0
2.2580 45.0
2.2710 43.0
2.2840 49.0
2.2970 46.0
2.3100 57.0
2.3230 53.0
2.3360 48.0
2.3490 46.0
2.3620 60.0
2.3750 54.0
2.3880 53.0
2.4010 59.0
2.4140 53.0
2.4270 54.0
2.4400 52.0
2.4530 57.0
2.4660 52.0
2.4790 58.0
2.4920 47.0
2.5050 48.0
2.5180 56.0
2.5310 50.0
2.5440 57.0
2.5570 59.0
2.5700 62.0
2.5830 56.0
2.5960 53.0
2.6090 64.0
2.6220 67.0
2.6350 63.0
2.6480 64.0
2.6610 59.0
2.6740 51.0
2.6870 51.0
2.7000 53.0
2.7130 49.0
2.7260 46.0
2.7390 53.0
2.7520 60.0
2.7650 59.0
2.7780 55.0
2.7910 54.0
2.8040 50.0
2.8170 51.0
2.8300 47.0
2.8430 50.0
2.8560 66.0
2.8690 62.0
2.8820 61.0
2.8950 55.0
2.9080 53.0
2.9210 58.0
2.9340 60.0
2.9470 58.0
2.9600 64.0
2.9730 66.0
2.9860 62.0
2.9990 44.0
3.0120 60.0
3.0250 71.0
3.0380 67.0
3.0510 66.0
3.0640 60.0
3.0770 59.0
3.0900 60.0
3.1030 71.0
3.1160 57.0
3.1290 60.0
3.1420 66.0
3.1550 51.0
3.1680 56.0
3.1810 69.0
3.1940 60.0
3.2070 64.0
3.2200 71.0
3.2330 54.0
3.2460 74.0
3.2590 54.0
3.2720 54.0
3.2850 78.0
3.2980 57.0
3.3110 73.0
3.3240 53.0
3.3370 65.0
3.3500 65.0
3.3630 70.0
3.3760 75.0
3.3890 70.0
3.4020 80.0
3.4150 61.0
3.4280 76.0
3.4410 56.0
3.4540 68.0
3.4670 69.0
3.4800 65.0
3.4930 65.0
3.5060 71.0
3.5190 71.0
3.5320 81.0
3.5450 89.0
3.5580 70.0
3.5710 72.0
3.5840 70.0
3.5970 67.0
3.6100 70.0
3.6230 63.0
3.6360 64.0
3.6490 70.0
3.6620 65.0
3.6750 65.0
3.6880 69.0
3.7010 73.0
3.7140 66.0
3.7270 66.0
3.7400 75.0
3.7530 70.0
3.7660 69.0
3.7790 67.0
3.7920 68.0
3.8050 76.0
3.8180 75.0
3.8310 69.0
3.8440 75.0
3.8570 75.0
3.8700 73.0
3.8830 72.0
3.8960 78.0
3.9090 81.0
3.9220 72.0
3.9350 66.0
3.9480 69.0
3.9610 70.0
3.9740 71.0
3.9870 79.0
4.0000 86.0
4.0130 86.0
4.0260 76.0
4.0390 75.0
4.0520 83.0
4.0650 74.0
4.0780 71.0
4.0910 82.0
4.1040 83.0
4.1170 74.0
4.1300 70.0
4.1430 75.0
4.1560 61.0
4.1690 70.0
4.1820 75.0
4.1950 72.0
4.2080 69.0
4.2210 77.0
4.2340 76.0
4.2470 82.0
4.2600 83.0
4.2730 87.0
4.2860 93.0
4.2990 82.0
4.3120 73.0
4.3250 76.0
4.3380 70.0
4.3510 76.0
4.3640 80.0
4.3770 81.0
4.3900 95.0
4.4030 91.0
4.4160 86.0
4.4290 72.0
4.4420 80.0
4.4550 80.0
4.4680 94.0
4.4810 91.0
4.4940 87.0
4.5070 86.0
4.5200 87.0
4.5330 84.0
4.5460 84.0
4.5590 80.0
4.5720 77.0
4.5850 97.0
4.5980 73.0
4.6110 82.0
4.6240 85.0
4.6370 87.0
4.6500 83.0
4.6630 82.0
4.6760 73.0
4.6890 91.0
4.7020 75.0
4.7150 81.0
4.7280 94.0
4.7410 100.0
4.7540 85.0
4.7670 84.0
4.7800 85.0
4.7930 77.0
4.8060 86.0
4.8190 84.0
4.8320 112.0
4.8450 87.0
4.8580 94.0
4.8710 104.0
4.8840 93.0
4.8970 92.0
4.9100 90.0
4.9230 98.0
4.9360 90.0
4.9490 90.0
4.9620 95.0
4.9750 103.0
4.9880 91.0
5.0010 100.0
5.0140 92.0
5.0270 101.0
5.0400 93.0
5.0530 81.0
5.0660 90.0
5.0790 93.0
5.0920 97.0
5.1050 101.0
5.1180 109.0
5.1310 101.0
5.1440 92.0
5.1570 96.0
5.1700 90.0
5.1830 97.0
5.1960 108.0
5.2090 120.0
5.2220 121.0
5.2350 113.0
5.2480 102.0
5.2610 99.0
5.2740 104.0
5.2870 98.0
5.3000 89.0
5.3130 88.0
5.3260 98.0
5.3390 105.0
5.3520 108.0
5.3650 109.0
5.3780 91.0
5.3910 94.0
5.4040 109.0
5.4170 105.0
5.4300 107.0
5.4430 103.0
5.4560 103.0
5.4690 102.0
5.4820 100.0
5.4950 104.0
5.5080 101.0
5.5210 97.0
5.5340 104.0
5.5470 95.0
5.5600 100.0
5.5730 103.0
5.5860 102.0
5.5990 105.0
5.6120 111.0
5.6250 95.0
5.6380 108.0
5.6510 107.0
5.6640 118.0
5.6770 102.0
5.6900 95.0
5.7030 102.0
5.7160 108.0
5.7290 103.0
5.7420 97.0
5.7550 97.0
5.7680 104.0
5.7810 90.0
5.7940 104.0
5.8070 115.0
5.8200 89.0
5.8330 104.0
5.8460 112.0
5.8590 111.0
5.8720 115.0
5.8850 105.0
5.8980 94.0
5.9110 109.0
5.9240 118.0
5.9370 104.0
5.9500 94.0
5.9630 125.0
5.9760 112.0
5.9890 121.0
6.0020 109.0
6.0150 109.0
6.0280 122.0
6.0410 103.0
6.0540 106.0
6.0670 121.0
6.0800 113.0
6.0930 111.0
6.1060 114.0
6.1190 117.0
6.1320 133.0
6.1450 124.0
6.1580 118.0
6.1710 115.0
6.1840 114.0
6.1970 104.0
6.2100 114.0
6.2230 107.0
6.2360 124.0
6.2490 112.0
6.2620 118.0
6.2750 121.0
6.2880 105.0
6.3010 110.0
6.3140 118.0
6.3270 115.0
6.3400 105.0
6.3530 125.0
6.3660 133.0
6.3790 126.0
6.3920 118.0
6.4050 125.0
6.4180 130.0
6.4310 126.0
6.4440 128.0
6.4570 142.0
6.4700 141.0
6.4830 120.0
6.4960 114.0
6.5090 121.0
6.5220 123.0
6.5350 121.0
6.5480 120.0
6.5610 117.0
6.5740 118.0
6.5870 120.0
6.6000 110.0
6.6130 114.0
6.6260 117.0
6.6390 112.0
6.6520 123.0
6.6650 121.0
6.6780 114.0
6.6910 115.0
6.7040 119.0
6.7170 117.0
6.7300 116.0
6.7430 126.0
6.7560 127.0
6.7690 121.0
6.7820 124.0
6.7950 127.0
6.8080 122.0
6.8210 126.0
6.8340 126.0
6.8470 143.0
6.8600 128.0
6.8730 114.0
6.8860 120.0
6.8990 115.0
6.9120 128.0
6.9250 129.0
6.9380 120.0
6.9510 134.0
6.9640 141.0
6.9770 123.0
6.9900 120.0
7.0030 121.0
7.0160 126.0
7.0290 108.0
7.0420 113.0
7.0550 132.0
7.0680 134.0
7.0810 123.0
7.0940 129.0
7.1070 136.0
7.1200 118.0
7.1330 118.0
7.1460 122.0
7.1590 132.0
7.1720 132.0
7.1850 124.0
7.1980 123.0
7.2110 120.0
7.2240 136.0
7.2370 134.0
7.2500 135.0
7.2630 144.0
7.2760 132.0
7.2890 133.0
7.3020 134.0
7.3150 135.0
7.3280 133.0
7.3410 123.0
7.3540 122.0
7.3670 126.0
7.3800 136.0
7.3930 122.0
7.4060 128.0
7.4190 120.0
7.4320 117.0
7.4450 119.0
7.4580 126.0
7.4710 132.0
7.4840 141.0
7.4970 125.0
7.5100 134.0
7.5230 146.0
7.5360 131.0
7.5490 136.0
7.5620 131.0
7.5750 123.0
7.5880 123.0
7.6010 125.0
7.6140 125.0
7.6270 140.0
7.6400 152.0
7.6530 142.0
7.6660 133.0
7.6790 126.0
7.6920 129.0
7.7050 131.0
7.7180 128.0
7.7310 132.0
7.7440 139.0
7.7570 143.0
7.7700 139.0
7.7830 143.0
7.7960 144.0
7.8090 136.0
7.8220 138.0
7.8350 132.0
7.8480 127.0
7.8610 129.0
7.8740 130.0
7.8870 132.0
7.9000 131.0
7.9130 124.0
7.9260 125.0
7.9390 143.0
7.9520 147.0
7.9650 136.0
7.9780 128.0
7.9910 130.0
8.0040 141.0
8.0170 145.0
8.0300 139.0
8.0430 128.0
8.0560 124.0
8.0690 138.0
8.0820 147.0
8.0950 150.0
8.1080 140.0
8.1210 135.0
8.1340 135.0
8.1470 138.0
8.1600 140.0
8.1730 145.0
8.1860 140.0
8.1990 133.0
8.2120 136.0
8.2250 140.0
8.2380 143.0
8.2510 129.0
8.2640 128.0
8.2770 127.0
8.2900 130.0
8.3030 140.0
8.3160 143.0
8.3290 142.0
8.3420 119.0
8.3550 116.0
8.3680 138.0
8.3810 155.0
8.3940 143.0
8.4070 148.0
8.4200 144.0
8.4330 147.0
8.4460 166.0
8.4590 113.0
8.4720 136.0
8.4850 130.0
8.4980 140.0
8.5110 150.0
8.5240 150.0
8.5370 158.0
8.5500 132.0
8.5630 144.0
8.5760 120.0
8.5890 145.0
8.6020 146.0
8.6150 137.0
8.6280 147.0
8.6410 144.0
8.6540 137.0
8.6670 130.0
8.6800 153.0
8.6930 124.0
8.7060 133.0
8.7190 139.0
8.7320 145.0
8.7450 143.0
8.7580 155.0
8.7710 139.0
8.7840 142.0
8.7970 132.0
8.8100 149.0
8.8230 139.0
8.8360 149.0
8.8490 165.0
8.8620 157.0
8.8750 141.0
8.8880 154.0
8.9010 155.0
8.9140 156.0
8.9270 153.0
8.9400 152.0
8.9530 148.0
8.9660 138.0
8.9790 130.0
8.9920 152.0
9.0050 155.0
9.0180 146.0
9.0310 138.0
9.0440 130.0
9.0570 137.0
9.0700 149.0
9.0830 145.0
9.0960 126.0
9.1090 126.0
9.1220 134.0
9.1350 145.0
9.1480 148.0
9.1610 147.0
9.1740 159.0
9.1870 152.0
9.2000 145.0
9.2130 150.0
9.2260 145.0
9.2390 143.0
9.2520 140.0
9.2650 140.0
9.2780 136.0
9.2910 134.0
9.3040 132.0
9.3170 119.0
9.3300 134.0
9.3430 141.0
9.3560 138.0
9.3690 145.0
9.3820 142.0
9.3950 155.0
9.4080 142.0
9.4210 136.0
9.4340 159.0
9.4470 156.0
9.4600 146.0
9.4730 150.0
9.4860 133.0
9.4990 124.0
9.5120 134.0
9.5250 156.0
9.5380 134.0
9.5510 136.0
9.5640 128.0
9.5770 138.0
9.5900 153.0
9.6030 152.0
9.6160 163.0
9.6290 144.0
9.6420 164.0
9.6550 154.0
9.6680 145.0
9.6810 142.0
9.6940 158.0
9.7070 139.0
9.7200 131.0
9.7330 145.0
9.7460 152.0
9.7590 139.0
9.7720 149.0
9.7850 168.0
9.7980 144.0
9.8110 168.0
9.8240 140.0
9.8370 146.0
9.8500 150.0
9.8630 153.0
9.8760 141.0
9.8890 140.0
9.9020 141.0
9.9150 143.0
9.9280 117.0
9.9410 137.0
9.9540 150.0
9.9670 168.0
9.9800 140.0
9.9930 139.0
10.0060 133.0
10.0190 128.0
10.0320 159.0
10.0450 161.0
10.0580 146.0
10.0710 151.0
10.0840 144.0
10.0970 153.0
10.1100 122.0
10.1230 156.0
10.1360 139.0
10.1490 153.0
10.1620 166.0
10.1750 136.0
10.1880 151.0
10.2010 149.0
10.2140 164.0
10.2270 150.0
10.2400 142.0
10.2530 151.0
10.2660 157.0
10.2790 145.0
10.2920 151.0
10.3050 160.0
10.3180 160.0
10.3310 162.0
10.3440 159.0
10.3570 157.0
10.3700 144.0
10.3830 138.0
10.3960 127.0
10.4090 144.0
10.4220 153.0
10.4350 141.0
10.4480 134.0
10.4610 144.0
10.4740 165.0
10.4870 163.0
10.5000 156.0
10.5130 159.0
10.5260 154.0
10.5390 151.0
10.5520 149.0
10.5650 161.0
10.5780 178.0
10.5910 160.0
10.6040 135.0
10.6170 142.0
10.6300 155.0
10.6430 152.0
10.6560 141.0
10.6690 155.0
10.6820 171.0
10.6950 159.0
10.7080 147.0
10.7210 153.0
10.7340 146.0
10.7470 131.0
10.7600 137.0
10.7730 150.0
10.7860 157.0
10.7990 163.0
10.8120 136.0
10.8250 157.0
10.8380 163.0
10.8510 150.0
10.8640 147.0
10.8770 167.0
10.8900 153.0
10.9030 146.0
10.9160 160.0
10.9290 149.0
10.9420 162.0
10.9550 157.0
10.9680 135.0
10.9810 131.0
10.9940 149.0
11.0070 142.0
11.0200 145.0
11.0330 164.0
11.0460 149.0
11.0590 165.0
11.0720 180.0
11.0850 138.0
11.0980 146.0
11.1110 169.0
11.1240 138.0
11.1370 169.0
11.1500 144.0
11.1630 156.0
11.1760 150.0
11.1890 152.0
11.2020 157.0
11.2150 151.0
11.2280 158.0
11.2410 161.0
11.2540 140.0
11.2670 157.0
11.2800 152.0
11.2930 158.0
11.3060 154.0
11.3190 139.0
11.3320 149.0
11.3450 169.0
11.3580 163.0
11.3710 163.0
11.3840 174.0
11.3970 168.0
11.4100 141.0
11.4230 156.0
11.4360 150.0
11.4490 149.0
11.4620 144.0
11.4750 140.0
11.4880 158.0
11.5010 155.0
11.5140 155.0
11.5270 157.0
11.5400 146.0
11.5530 166.0
11.5660 165.0
11.5790 162.0
11.5920 164.0
11.6050 166.0
11.6180 164.0
11.6310 170.0
11.6440 149.0
11.6570 140.0
11.6700 148.0
11.6830 152.0
11.6960 160.0
11.7090 160.0
11.7220 158.0
11.7350 152.0
11.7480 151.0
11.7610 147.0
11.7740 152.0
11.7870 152.0
11.8000 160.0
11.8130 168.0
11.8260 164.0
11.8390 163.0
11.8520 153.0
11.8650 147.0
11.8780 148.0
11.8910 162.0
11.9040 176.0
11.9170 186.0
11.9300 179.0
11.9430 146.0
11.9560 162.0
11.9690 172.0
11.9820 173.0
11.9950 157.0
12.0080 156.0
12.0210 152.0
12.0340 147.0
12.0470 167.0
12.0600 167.0
12.0730 172.0
12.0860 167.0
12.0990 177.0
12.1120 177.0
12.1250 165.0
12.1380 158.0
12.1510 146.0
12.1640 181.0
12.1770 194.0
12.1900 168.0
12.2030 188.0
12.2160 175.0
12.2290 187.0
12.2420 209.0
12.2550 204.0
12.2680 230.0
12.2810 226.0
12.2940 231.0
12.3070 274.0
12.3200 348.0
12.3330 355.0
12.3460 393.0
12.3590 461.0
12.3720 538.0
12.3850 734.0
12.3980 827.0
12.4110 981.0
12.4240 1134.0
12.4370 1479.0
12.4500 1842.0
12.4630 2427.0
12.4760 2993.0
12.4890 3428.0
12.5020 3373.0
12.5150 2995.0
12.5280 2494.0
12.5410 1878.0
12.5540 1262.0
12.5670 689.0
12.5800 392.0
12.5930 277.0
12.6060 260.0
12.6190 219.0
12.6320 194.0
12.6450 192.0
12.6580 162.0
12.6710 188.0
12.6840 173.0
12.6970 169.0
12.7100 156.0
12.7230 173.0
12.7360 151.0
12.7490 152.0
12.7620 145.0
12.7750 150.0
12.7880 143.0
12.8010 166.0
12.8140 173.0
12.8270 167.0
12.8400 153.0
12.8530 166.0
12.8660 154.0
12.8790 155.0
12.8920 144.0
12.9050 143.0
12.9180 147.0
12.9310 169.0
12.9440 160.0
12.9570 160.0
12.9700 144.0
12.9830 161.0
12.9960 173.0
13.0090 160.0
13.0220 162.0
13.0350 159.0
13.0480 156.0
13.0610 156.0
13.0740 151.0
13.0870 147.0
13.1000 155.0
13.1130 163.0
13.1260 156.0
13.1390 150.0
13.1520 147.0
13.1650 148.0
13.1780 149.0
13.1910 147.0
13.2040 142.0
13.2170 135.0
13.2300 142.0
13.2430 151.0
13.2560 157.0
13.2690 152.0
13.2820 157.0
13.2950 166.0
13.3080 154.0
13.3210 142.0
13.3340 134.0
13.3470 143.0
13.3600 147.0
13.3730 142.0
13.3860 146.0
13.3990 145.0
13.4120 143.0
13.4250 154.0
13.4380 152.0
13.4510 137.0
13.4640 154.0
13.4770 172.0
13.4900 162.0
13.5030 156.0
13.5160 159.0
13.5290 165.0
13.5420 154.0
13.5550 137.0
13.5680 151.0
13.5810 156.0
13.5940 125.0
13.6070 139.0
13.6200 159.0
13.6330 154.0
13.6460 135.0
13.6590 146.0
13.6720 146.0
13.6850 150.0
13.6980 182.0
13.7110 163.0
13.7240 161.0
13.7370 136.0
13.7500 164.0
13.7630 163.0
13.7760 155.0
13.7890 151.0
13.8020 164.0
13.8150 173.0
13.8280 149.0
13.8410 142.0
13.8540 137.0
13.8670 141.0
13.8800 142.0
13.8930 171.0
13.9060 151.0
13.9190 153.0
13.9320 148.0
13.9450 140.0
13.9580 160.0
13.9710 153.0
13.9840 154.0
13.9970 134.0
14.0100 159.0
14.0230 167.0
14.0360 156.0
14.0490 150.0
14.0620 141.0
14.0750 152.0
14.0880 143.0
14.1010 169.0
14.1140 143.0
14.1270 141.0
14.1400 154.0
14.1530 141.0
14.1660 153.0
14.1790 146.0
14.1920 144.0
14.2050 148.0
14.2180 151.0
14.2310 144.0
14.2440 149.0
14.2570 157.0
14.2700 153.0
14.2830 153.0
14.2960 157.0
14.3090 165.0
14.3220 165.0
14.3350 158.0
14.3480 161.0
14.3610 172.0
14.3740 165.0
14.3870 175.0
14.4000 198.0
14.4130 204.0
14.4260 213.0
14.4390 248.0
14.4520 275.0
14.4650 312.0
14.4780 352.0
14.4910 361.0
14.5040 359.0
14.5170 350.0
14.5300 355.0
14.5430 379.0
14.5560 412.0
14.5690 465.0
14.5820 552.0
14.5950 653.0
14.6080 778.0
14.6210 984.0
14.6340 1106.0
14.6470 991.0
14.6600 715.0
14.6730 425.0
14.6860 279.0
14.6990 222.0
14.7120 207.0
14.7250 179.0
14.7380 165.0
14.7510 183.0
14.7640 181.0
14.7770 154.0
14.7900 162.0
14.8030 161.0
14.8160 164.0
14.8290 153.0
14.8420 139.0
14.8550 141.0
14.8680 138.0
14.8810 129.0
14.8940 141.0
14.9070 166.0
14.9200 166.0
14.9330 128.0
14.9460 152.0
14.9590 168.0
14.9720 155.0
14.9850 131.0
14.9980 141.0
15.0110 144.0
15.0240 138.0
15.0370 140.0
15.0500 148.0
15.0630 171.0
15.0760 155.0
15.0890 162.0
15.1020 145.0
15.1150 154.0
15.1280 144.0
15.1410 148.0
15.1540 148.0
15.1670 136.0
15.1800 138.0
15.1930 153.0
15.2060 147.0
15.2190 157.0
15.2320 155.0
15.2450 145.0
15.2580 155.0
15.2710 140.0
15.2840 139.0
15.2970 147.0
15.3100 148.0
15.3230 135.0
15.3360 127.0
15.3490 144.0
15.3620 137.0
15.3750 153.0
15.3880 135.0
15.4010 154.0
15.4140 160.0
15.4270 134.0
15.4400 149.0
15.4530 149.0
15.4660 146.0
15.4790 144.0
15.4920 147.0
15.5050 148.0
15.5180 143.0
15.5310 136.0
15.5440 157.0
15.5570 157.0
15.5700 153.0
15.5830 151.0
15.5960 142.0
15.6090 138.0
15.6220 147.0
15.6350 142.0
15.6480 143.0
15.6610 144.0
15.6740 141.0
15.6870 142.0
15.7000 162.0
15.7130 160.0
15.7260 143.0
15.7390 146.0
15.7520 149.0
15.7650 153.0
15.7780 156.0
15.7910 158.0
15.8040 147.0
15.8170 139.0
15.8300 153.0
15.8430 153.0
15.8560 152.0
15.8690 147.0
15.8820 133.0
15.8950 134.0
15.9080 154.0
15.9210 170.0
15.9340 165.0
15.9470 149.0
15.9600 133.0
15.9730 148.0
15.9860 148.0
15.9990 145.0
16.0120 152.0
16.0250 136.0
16.0380 147.0
16.0510 150.0
16.0640 149.0
16.0770 155.0
16.0900 152.0
16.1030 147.0
16.1160 146.0
16.1290 146.0
16.1420 134.0
16.1550 145.0
16.1680 158.0
16.1810 153.0
16.1940 130.0
16.2070 160.0
16.2200 130.0
16.2330 141.0
16.2460 130.0
16.2590 159.0
16.2720 155.0
16.2850 153.0
16.2980 164.0
16.3110 142.0
16.3240 134.0
16.3370 128.0
16.3500 140.0
16.3630 143.0
16.3760 136.0
16.3890 142.0
16.4020 127.0
16.4150 144.0
16.4280 144.0
16.4410 140.0
16.4540 129.0
16.4670 136.0
16.4800 113.0
16.4930 165.0
16.5060 145.0
16.5190 155.0
16.5320 148.0
16.5450 164.0
16.5580 134.0
16.5710 125.0
16.5840 149.0
16.5970 156.0
16.6100 150.0
16.6230 142.0
16.6360 143.0
16.6490 147.0
16.6620 141.0
16.6750 141.0
16.6880 160.0
16.7010 151.0
16.7140 156.0
16.7270 165.0
16.7400 156.0
16.7530 128.0
16.7660 140.0
16.7790 140.0
16.7920 150.0
16.8050 134.0
16.8180 138.0
16.8310 141.0
16.8440 150.0
16.8570 143.0
16.8700 145.0
16.8830 139.0
16.8960 144.0
16.9090 135.0
16.9220 143.0
16.9350 139.0
16.9480 143.0
16.9610 153.0
16.9740 156.0
16.9870 154.0
17.0000 149.0
17.0130 142.0
17.0260 127.0
17.0390 126.0
17.0520 135.0
17.0650 141.0
17.0780 143.0
17.0910 143.0
17.1040 145.0
17.1170 145.0
17.1300 146.0
17.1430 141.0
17.1560 145.0
17.1690 155.0
17.1820 145.0
17.1950 124.0
17.2080 138.0
17.2210 156.0
17.2340 131.0
17.2470 125.0
17.2600 132.0
17.2730 126.0
17.2860 146.0
17.2990 149.0
17.3120 146.0
17.3250 150.0
17.3380 160.0
17.3510 155.0
17.3640 141.0
17.3770 128.0
17.3900 143.0
17.4030 135.0
17.4160 135.0
17.4290 149.0
17.4420 147.0
17.4550 139.0
17.4680 145.0
17.4810 146.0
17.4940 128.0
17.5070 132.0
17.5200 138.0
17.5330 157.0
17.5460 156.0
17.5590 132.0
17.5720 148.0
17.5850 145.0
17.5980 152.0
17.6110 135.0
17.6240 172.0
17.6370 134.0
17.6500 118.0
17.6630 132.0
17.6760 128.0
17.6890 138.0
17.7020 133.0
17.7150 146.0
17.7280 152.0
17.7410 130.0
17.7540 131.0
17.7670 138.0
17.7800 129.0
17.7930 159.0
17.8060 113.0
17.8190 141.0
17.8320 143.0
17.8450 145.0
17.8580 126.0
17.8710 152.0
17.8840 142.0
17.8970 136.0
17.9100 138.0
17.9230 147.0
17.9360 147.0
17.9490 135.0
17.9620 143.0
17.9750 136.0
17.9880 142.0
18.0010 116.0
18.0140 133.0
18.0270 153.0
18.0400 135.0
18.0530 136.0
18.0660 138.0
18.0790 131.0
18.0920 145.0
18.1050 131.0
18.1180 130.0
18.1310 134.0
18.1440 131.0
18.1570 131.0
18.1700 132.0
18.1830 142.0
18.1960 146.0
18.2090 139.0
18.2220 137.0
18.2350 139.0
18.2480 132.0
18.2610 143.0
18.2740 143.0
18.2870 141.0
18.3000 140.0
18.3130 138.0
18.3260 131.0
18.3390 133.0
18.3520 136.0
18.3650 137.0
18.3780 138.0
18.3910 142.0
18.4040 139.0
18.4170 129.0
18.4300 128.0
18.4430 136.0
18.4560 149.0
18.4690 143.0
18.4820 136.0
18.4950 141.0
18.5080 143.0
18.5210 129.0
18.5340 125.0
18.5470 135.0
18.5600 147.0
18.5730 138.0
18.5860 135.0
18.5990 132.0
18.6120 150.0
18.6250 171.0
18.6380 165.0
18.6510 142.0
18.6640 131.0
18.6770 119.0
18.6900 134.0
18.7030 144.0
18.7160 134.0
18.7290 128.0
18.7420 136.0
18.7550 135.0
18.7680 139.0
18.7810 135.0
18.7940 137.0
18.8070 130.0
18.8200 125.0
18.8330 127.0
18.8460 125.0
18.8590 141.0
18.8720 151.0
18.8850 134.0
18.8980 137.0
18.9110 152.0
18.9240 129.0
18.9370 132.0
18.9500 137.0
18.9630 140.0
18.9760 130.0
18.9890 150.0
19.0020 171.0
19.0150 156.0
19.0280 141.0
19.0410 143.0
19.0540 152.0
19.0670 168.0
19.0800 179.0
19.0930 191.0
19.1060 190.0
19.1190 211.0
19.1320 241.0
19.1450 262.0
19.1580 332.0
19.1710 388.0
19.1840 465.0
19.1970 599.0
19.2100 661.0
19.2230 865.0
19.2360 1110.0
19.2490 1364.0
19.2620 1544.0
19.2750 1572.0
19.2880 1457.0
19.3010 1221.0
19.3140 875.0
19.3270 566.0
19.3400 368.0
19.3530 259.0
19.3660 201.0
19.3790 188.0
19.3920 172.0
19.4050 156.0
19.4180 162.0
19.4310 154.0
19.4440 158.0
19.4570 134.0
19.4700 132.0
19.4830 141.0
19.4960 134.0
19.5090 135.0
19.5220 151.0
19.5350 144.0
19.5480 137.0
19.5610 133.0
19.5740 138.0
19.5870 143.0
19.6000 134.0
19.6130 138.0
19.6260 144.0
19.6390 141.0
19.6520 133.0
19.6650 127.0
19.6780 124.0
19.6910 126.0
19.7040 131.0
19.7170 135.0
19.7300 143.0
19.7430 135.0
19.7560 133.0
19.7690 143.0
19.7820 132.0
19.7950 130.0
19.8080 142.0
19.8210 143.0
19.8340 132.0
19.8470 135.0
19.8600 132.0
19.8730 138.0
19.8860 144.0
19.8990 146.0
19.9120 137.0
19.9250 124.0
19.9380 117.0
19.9510 123.0
19.9640 140.0
19.9770 142.0
19.9900 118.0
20.0030 120.0
20.0160 122.0
20.0290 131.0
20.0420 166.0
20.0550 134.0
20.0680 129.0
20.0810 117.0
20.0940 133.0
20.1070 134.0
20.1200 139.0
20.1330 131.0
20.1460 136.0
20.1590 124.0
20.1720 127.0
20.1850 137.0
20.1980 145.0
20.2110 149.0
20.2240 149.0
20.2370 142.0
20.2500 119.0
20.2630 143.0
20.2760 135.0
20.2890 131.0
20.3020 138.0
20.3150 123.0
20.3280 134.0
20.3410 125.0
20.3540 137.0
20.3670 121.0
20.3800 145.0
20.3930 120.0
20.4060 124.0
20.4190 126.0
20.4320 145.0
20.4450 124.0
20.4580 137.0
20.4710 135.0
20.4840 109.0
20.4970 118.0
20.5100 134.0
20.5230 133.0
20.5360 146.0
20.5490 130.0
20.5620 136.0
20.5750 126.0
20.5880 131.0
20.6010 138.0
20.6140 113.0
20.6270 118.0
20.6400 119.0
20.6530 144.0
20.6660 129.0
20.6790 135.0
20.6920 141.0
20.7050 138.0
20.7180 150.0
20.7310 134.0
20.7440 133.0
20.7570 119.0
20.7700 119.0
20.7830 119.0
20.7960 129.0
20.8090 123.0
20.8220 113.0
20.8350 118.0
20.8480 121.0
20.8610 124.0
20.8740 118.0
20.8870 132.0
20.9000 128.0
20.9130 114.0
20.9260 122.0
20.9390 136.0
20.9520 138.0
20.9650 127.0
20.9780 125.0
20.9910 129.0
21.0040 118.0
21.0170 127.0
21.0300 134.0
21.0430 130.0
21.0560 127.0
21.0690 110.0
21.0820 109.0
21.0950 122.0
21.1080 123.0
21.1210 125.0
21.1340 132.0
21.1470 129.0
21.1600 135.0
21.1730 128.0
21.1860 120.0
21.1990 119.0
21.2120 124.0
21.2250 138.0
21.2380 141.0
21.2510 129.0
21.2640 123.0
21.2770 129.0
21.2900 117.0
21.3030 117.0
21.3160 124.0
21.3290 136.0
21.3420 126.0
21.3550 120.0
21.3680 122.0
21.3810 113.0
21.3940 124.0
21.4070 127.0
21.4200 130.0
21.4330 150.0
21.4460 120.0
21.4590 125.0
21.4720 134.0
21.4850 124.0
21.4980 133.0
21.5110 121.0
21.5240 121.0
21.5370 122.0
21.5500 128.0
21.5630 136.0
21.5760 128.0
21.5890 128.0
21.6020 122.0
21.6150 128.0
21.6280 118.0
21.6410 124.0
21.6540 129.0
21.6670 114.0
21.6800 118.0
21.6930 124.0
21.7060 142.0
21.7190 134.0
21.7320 111.0
21.7450 107.0
21.7580 138.0
21.7710 130.0
21.7840 95.0
21.7970 138.0
21.8100 134.0
21.8230 113.0
21.8360 121.0
21.8490 131.0
21.8620 124.0
21.8750 127.0
21.8880 122.0
21.9010 123.0
21.9140 116.0
21.9270 125.0
21.9400 139.0
21.9530 122.0
21.9660 121.0
21.9790 116.0
21.9920 127.0
22.0050 120.0
22.0180 124.0
22.0310 113.0
22.0440 134.0
22.0570 138.0
22.0700 105.0
22.0830 133.0
22.0960 137.0
22.1090 131.0
22.1220 118.0
22.1350 125.0
22.1480 130.0
22.1610 127.0
22.1740 120.0
22.1870 128.0
22.2000 135.0
22.2130 138.0
22.2260 135.0
22.2390 133.0
22.2520 135.0
22.2650 124.0
22.2780 115.0
22.2910 125.0
22.3040 130.0
22.3170 133.0
22.3300 133.0
22.3430 131.0
22.3560 127.0
22.3690 121.0
22.3820 129.0
22.3950 133.0
22.4080 130.0
22.4210 120.0
22.4340 112.0
22.4470 123.0
22.4600 136.0
22.4730 119.0
22.4860 113.0
22.4990 126.0
22.5120 123.0
22.5250 125.0
22.5380 130.0
22.5510 121.0
22.5640 118.0
22.5770 130.0
22.5900 127.0
22.6030 132.0
22.6160 135.0
22.6290 116.0
22.6420 124.0
22.6550 135.0
22.6680 120.0
22.6810 124.0
22.6940 125.0
22.7070 129.0
22.7200 130.0
22.7330 138.0
22.7460 132.0
22.7590 114.0
22.7720 122.0
22.7850 132.0
22.7980 136.0
22.8110 114.0
22.8240 145.0
22.8370 116.0
22.8500 114.0
22.8630 123.0
22.8760 116.0
22.8890 119.0
22.9020 122.0
22.9150 121.0
22.9280 131.0
22.9410 113.0
22.9540 102.0
22.9670 121.0
22.9800 132.0
22.9930 122.0
23.0060 118.0
23.0190 123.0
23.0320 107.0
23.0450 123.0
23.0580 141.0
23.0710 126.0
23.0840 133.0
23.0970 129.0
23.1100 120.0
23.1230 123.0
23.1360 119.0
23.1490 113.0
23.1620 115.0
23.1750 123.0
23.1880 117.0
23.2010 120.0
23.2140 130.0
23.2270 137.0
23.2400 124.0
23.2530 143.0
23.2660 113.0
23.2790 126.0
23.2920 125.0
23.3050 121.0
23.3180 121.0
23.3310 139.0
23.3440 129.0
23.3570 109.0
23.3700 115.0
23.3830 106.0
23.3960 116.0
23.4090 139.0
23.4220 126.0
23.4350 122.0
23.4480 121.0
23.4610 107.0
23.4740 108.0
23.4870 113.0
23.5000 106.0
23.5130 120.0
23.5260 126.0
23.5390 128.0
23.5520 131.0
23.5650 125.0
23.5780 130.0
23.5910 128.0
23.6040 114.0
23.6170 120.0
23.6300 132.0
23.6430 121.0
23.6560 113.0
23.6690 124.0
23.6820 129.0
23.6950 129.0
23.7080 138.0
23.7210 141.0
23.7340 131.0
23.7470 133.0
23.7600 143.0
23.7730 138.0
23.7860 134.0
23.7990 129.0
23.8120 130.0
23.8250 130.0
23.8380 137.0
23.8510 147.0
23.8640 133.0
23.8770 136.0
23.8900 147.0
23.9030 167.0
23.9160 166.0
23.9290 150.0
23.9420 173.0
23.9550 166.0
23.9680 174.0
23.9810 188.0
23.9940 183.0
24.0070 183.0
24.0200 173.0
24.0330 168.0
24.0460 188.0
24.0590 201.0
24.0720 166.0
24.0850 175.0
24.0980 168.0
24.1110 159.0
24.1240 130.0
24.1370 157.0
24.1500 155.0
24.1630 127.0
24.1760 141.0
24.1890 108.0
24.2020 122.0
24.2150 132.0
24.2280 125.0
24.2410 132.0
24.2540 135.0
24.2670 133.0
24.2800 135.0
24.2930 104.0
24.3060 124.0
24.3190 121.0
24.3320 129.0
24.3450 109.0
24.3580 122.0
24.3710 128.0
24.3840 117.0
24.3970 122.0
24.4100 103.0
24.4230 124.0
24.4360 118.0
24.4490 124.0
24.4620 105.0
24.4750 130.0
24.4880 121.0
24.5010 115.0
24.5140 146.0
24.5270 120.0
24.5400 127.0
24.5530 127.0
24.5660 128.0
24.5790 110.0
24.5920 126.0
24.6050 125.0
24.6180 134.0
24.6310 121.0
24.6440 121.0
24.6570 106.0
24.6700 111.0
24.6830 116.0
24.6960 130.0
24.7090 128.0
24.7220 118.0
24.7350 114.0
24.7480 138.0
24.7610 131.0
24.7740 116.0
24.7870 120.0
24.8000 123.0
24.8130 112.0
24.8260 119.0
24.8390 126.0
24.8520 119.0
24.8650 128.0
24.8780 125.0
24.8910 125.0
24.9040 128.0
24.9170 132.0
24.9300 131.0
24.9430 126.0
24.9560 132.0
24.9690 138.0
24.9820 133.0
24.9950 126.0
25.0080 138.0
25.0210 148.0
25.0340 151.0
25.0470 146.0
25.0600 160.0
25.0730 172.0
25.0860 162.0
25.0990 161.0
25.1120 173.0
25.1250 190.0
25.1380 174.0
25.1510 171.0
25.1640 168.0
25.1770 161.0
25.1900 158.0
25.2030 161.0
25.2160 153.0
25.2290 172.0
25.2420 210.0
25.2550 246.0
25.2680 274.0
25.2810 315.0
25.2940 408.0
25.3070 545.0
25.3200 638.0
25.3330 812.0
25.3460 1030.0
25.3590 1152.0
25.3720 1172.0
25.3850 1105.0
25.3980 979.0
25.4110 696.0
25.4240 486.0
25.4370 316.0
25.4500 236.0
25.4630 203.0
25.4760 163.0
25.4890 158.0
25.5020 140.0
25.5150 153.0
25.5280 146.0
25.5410 138.0
25.5540 144.0
25.5670 132.0
25.5800 120.0
25.5930 131.0
25.6060 128.0
25.6190 126.0
25.6320 124.0
25.6450 137.0
25.6580 139.0
25.6710 122.0
25.6840 118.0
25.6970 128.0
25.7100 131.0
25.7230 117.0
25.7360 124.0
25.7490 123.0
25.7620 123.0
25.7750 136.0
25.7880 128.0
25.8010 122.0
25.8140 120.0
25.8270 130.0
25.8400 129.0
25.8530 128.0
25.8660 134.0
25.8790 129.0
25.8920 131.0
25.9050 130.0
25.9180 122.0
25.9310 133.0
25.9440 126.0
25.9570 138.0
25.9700 123.0
25.9830 112.0
25.9960 124.0
26.0090 139.0
26.0220 136.0
26.0350 132.0
26.0480 123.0
26.0610 125.0
26.0740 129.0
26.0870 128.0
26.1000 129.0
26.1130 145.0
26.1260 150.0
26.1390 150.0
26.1520 141.0
26.1650 147.0
26.1780 154.0
26.1910 157.0
26.2040 159.0
26.2170 159.0
26.2300 165.0
26.2430 171.0
26.2560 179.0
26.2690 185.0
26.2820 182.0
26.2950 173.0
26.3080 168.0
26.3210 177.0
26.3340 173.0
26.3470 151.0
26.3600 144.0
26.3730 155.0
26.3860 154.0
26.3990 146.0
26.4120 152.0
26.4250 149.0
26.4380 148.0
26.4510 147.0
26.4640 136.0
26.4770 132.0
26.4900 145.0
26.5030 123.0
26.5160 107.0
26.5290 122.0
26.5420 124.0
26.5550 129.0
26.5680 127.0
26.5810 132.0
26.5940 122.0
26.6070 134.0
26.6200 130.0
26.6330 133.0
26.6460 116.0
26.6590 124.0
26.6720 110.0
26.6850 120.0
26.6980 142.0
26.7110 118.0
26.7240 119.0
26.7370 126.0
26.7500 115.0
26.7630 143.0
26.7760 109.0
26.7890 114.0
26.8020 121.0
26.8150 108.0
26.8280 120.0
26.8410 121.0
26.8540 123.0
26.8670 120.0
26.8800 104.0
26.8930 126.0
26.9060 144.0
26.9190 130.0
26.9320 141.0
26.9450 151.0
26.9580 126.0
26.9710 141.0
26.9840 118.0
26.9970 133.0
27.0100 128.0
27.0230 132.0
27.0360 110.0
27.0490 137.0
27.0620 148.0
27.0750 139.0
27.0880 153.0
27.1010 164.0
27.1140 148.0
27.1270 152.0
27.1400 169.0
27.1530 198.0
27.1660 179.0
27.1790 188.0
27.1920 180.0
27.2050 207.0
27.2180 214.0
27.2310 203.0
27.2440 209.0
27.2570 246.0
27.2700 236.0
27.2830 255.0
27.2960 275.0
27.3090 249.0
27.3220 241.0
27.3350 227.0
27.3480 238.0
27.3610 204.0
27.3740 187.0
27.3870 206.0
27.4000 215.0
27.4130 194.0
27.4260 182.0
27.4390 173.0
27.4520 169.0
27.4650 154.0
27.4780 166.0
27.4910 164.0
27.5040 135.0
27.5170 141.0
27.5300 149.0
27.5430 145.0
27.5560 145.0
27.5690 134.0
27.5820 134.0
27.5950 141.0
27.6080 137.0
27.6210 135.0
27.6340 138.0
27.6470 145.0
27.6600 143.0
27.6730 138.0
27.6860 132.0
27.6990 121.0
27.7120 110.0
27.7250 127.0
27.7380 124.0
27.7510 128.0
27.7640 124.0
27.7770 116.0
27.7900 130.0
27.8030 124.0
27.8160 122.0
27.8290 127.0
27.8420 123.0
27.8550 134.0
27.8680 145.0
27.8810 128.0
27.8940 128.0
27.9070 124.0
27.9200 127.0
27.9330 120.0
27.9460 117.0
27.9590 134.0
27.9720 120.0
27.9850 122.0
27.9980 124.0
28.0110 143.0
28.0240 130.0
28.0370 142.0
28.0500 126.0
28.0630 146.0
28.0760 146.0
28.0890 137.0
28.1020 123.0
28.1150 129.0
28.1280 154.0
28.1410 139.0
28.1540 134.0
28.1670 146.0
28.1800 154.0
28.1930 158.0
28.2060 141.0
28.2190 142.0
28.2320 141.0
28.2450 141.0
28.2580 147.0
28.2710 122.0
28.2840 147.0
28.2970 153.0
28.3100 149.0
28.3230 141.0
28.3360 135.0
28.3490 145.0
28.3620 150.0
28.3750 163.0
28.3880 134.0
28.4010 132.0
28.4140 125.0
28.4270 126.0
28.4400 126.0
28.4530 135.0
28.4660 131.0
28.4790 138.0
28.4920 130.0
28.5050 123.0
28.5180 124.0
28.5310 132.0
28.5440 141.0
28.5570 130.0
28.5700 120.0
28.5830 127.0
28.5960 134.0
28.6090 125.0
28.6220 136.0
28.6350 143.0
28.6480 132.0
28.6610 128.0
28.6740 137.0
28.6870 151.0
28.7000 150.0
28.7130 151.0
28.7260 143.0
28.7390 157.0
28.7520 159.0
28.7650 150.0
28.7780 164.0
28.7910 166.0
28.8040 170.0
28.8170 178.0
28.8300 176.0
28.8430 192.0
28.8560 201.0
28.8690 189.0
28.8820 197.0
28.8950 202.0
28.9080 233.0
28.9210 253.0
28.9340 251.0
28.9470 286.0
28.9600 285.0
28.9730 286.0
28.9860 278.0
28.9990 266.0
29.0120 256.0
29.0250 254.0
29.0380 263.0
29.0510 241.0
29.0640 200.0
29.0770 198.0
29.0900 172.0
29.1030 165.0
29.1160 145.0
29.1290 136.0
29.1420 134.0
29.1550 132.0
29.1680 122.0
29.1810 130.0
29.1940 115.0
29.2070 107.0
29.2200 129.0
29.2330 141.0
29.2460 133.0
29.2590 109.0
29.2720 107.0
29.2850 108.0
29.2980 128.0
29.3110 121.0
29.3240 107.0
29.3370 104.0
29.3500 117.0
29.3630 120.0
29.3760 120.0
29.3890 128.0
29.4020 107.0
29.4150 114.0
29.4280 134.0
29.4410 114.0
29.4540 134.0
29.4670 128.0
29.4800 134.0
29.4930 156.0
29.5060 127.0
29.5190 139.0
29.5320 124.0
29.5450 107.0
29.5580 107.0
29.5710 109.0
29.5840 113.0
29.5970 104.0
29.6100 105.0
29.6230 131.0
29.6360 134.0
29.6490 110.0
29.6620 104.0
29.6750 131.0
29.6880 113.0
29.7010 112.0
29.7140 121.0
29.7270 119.0
29.7400 108.0
29.7530 125.0
29.7660 123.0
29.7790 107.0
29.7920 122.0
29.8050 133.0
29.8180 122.0
29.8310 116.0
29.8440 126.0
29.8570 108.0
29.8700 119.0
29.8830 113.0
29.8960 111.0
29.9090 119.0
29.9220 121.0
29.9350 111.0
29.9480 114.0
29.9610 124.0
29.9740 125.0
29.9870 121.0
30.0000 119.0
30.0130 123.0
30.0260 116.0
30.0390 119.0
30.0520 152.0
30.0650 156.0
30.0780 127.0
30.0910 127.0
30.1040 136.0
30.1170 146.0
30.1300 161.0
30.1430 167.0
30.1560 157.0
30.1690 155.0
30.1820 166.0
30.1950 171.0
30.2080 170.0
30.2210 164.0
30.2340 181.0
30.2470 194.0
30.2600 163.0
30.2730 151.0
30.2860 155.0
30.2990 160.0
30.3120 157.0
30.3250 137.0
30.3380 137.0
30.3510 131.0
30.3640 129.0
30.3770 122.0
30.3900 112.0
30.4030 131.0
30.4160 138.0
30.4290 139.0
30.4420 144.0
30.4550 133.0
30.4680 124.0
30.4810 125.0
30.4940 121.0
30.5070 114.0
30.5200 119.0
30.5330 124.0
30.5460 131.0
30.5590 125.0
30.5720 110.0
30.5850 112.0
30.5980 112.0
30.6110 117.0
30.6240 112.0
30.6370 103.0
30.6500 101.0
30.6630 116.0
30.6760 126.0
30.6890 127.0
30.7020 122.0
30.7150 116.0
30.7280 94.0
30.7410 92.0
30.7540 116.0
30.7670 127.0
30.7800 128.0
30.7930 108.0
30.8060 107.0
30.8190 117.0
30.8320 105.0
30.8450 108.0
30.8580 111.0
30.8710 105.0
30.8840 116.0
30.8970 129.0
30.9100 122.0
30.9230 113.0
30.9360 122.0
30.9490 97.0
30.9620 115.0
30.9750 114.0
30.9880 117.0
31.0010 99.0
31.0140 115.0
31.0270 127.0
31.0400 101.0
31.0530 114.0
31.0660 105.0
31.0790 100.0
31.0920 107.0
31.1050 121.0
31.1180 117.0
31.1310 100.0
31.1440 109.0
31.1570 111.0
31.1700 126.0
31.1830 120.0
31.1960 105.0
31.2090 124.0
31.2220 111.0
31.2350 133.0
31.2480 113.0
31.2610 111.0
31.2740 113.0
31.2870 117.0
31.3000 115.0
31.3130 105.0
31.3260 101.0
31.3390 112.0
31.3520 116.0
31.3650 115.0
31.3780 99.0
31.3910 112.0
31.4040 126.0
31.4170 120.0
31.4300 117.0
31.4430 113.0
31.4560 121.0
31.4690 129.0
31.4820 124.0
31.4950 120.0
31.5080 117.0
31.5210 120.0
31.5340 123.0
31.5470 113.0
31.5600 104.0
31.5730 111.0
31.5860 117.0
31.5990 113.0
31.6120 115.0
31.6250 127.0
31.6380 126.0
31.6510 118.0
31.6640 115.0
31.6770 122.0
31.6900 130.0
31.7030 135.0
31.7160 121.0
31.7290 118.0
31.7420 135.0
31.7550 126.0
31.7680 140.0
31.7810 138.0
31.7940 136.0
31.8070 123.0
31.8200 136.0
31.8330 129.0
31.8460 118.0
31.8590 117.0
31.8720 110.0
31.8850 110.0
31.8980 128.0
31.9110 125.0
31.9240 135.0
31.9370 119.0
31.9500 126.0
31.9630 132.0
31.9760 117.0
31.9890 117.0
32.0020 136.0
32.0150 138.0
32.0280 169.0
32.0410 161.0
32.0540 196.0
32.0670 245.0
32.0800 289.0
32.0930 337.0
32.1060 344.0
32.1190 361.0
32.1320 335.0
32.1450 306.0
32.1580 249.0
32.1710 194.0
32.1840 151.0
32.1970 144.0
32.2100 135.0
32.2230 127.0
32.2360 114.0
32.2490 125.0
32.2620 118.0
32.2750 127.0
32.2880 105.0
32.3010 100.0
32.3140 105.0
32.3270 124.0
32.3400 111.0
32.3530 115.0
32.3660 108.0
32.3790 115.0
32.3920 124.0
32.4050 132.0
32.4180 112.0
32.4310 106.0
32.4440 121.0
32.4570 113.0
32.4700 99.0
32.4830 102.0
32.4960 101.0
32.5090 100.0
32.5220 111.0
32.5350 120.0
32.5480 109.0
32.5610 106.0
32.5740 97.0
32.5870 101.0
32.6000 112.0
32.6130 118.0
32.6260 115.0
32.6390 113.0
32.6520 123.0
32.6650 124.0
32.6780 119.0
32.6910 123.0
32.7040 119.0
32.7170 117.0
32.7300 118.0
32.7430 131.0
32.7560 136.0
32.7690 123.0
32.7820 122.0
32.7950 130.0
32.8080 119.0
32.8210 115.0
32.8340 114.0
32.8470 116.0
32.8600 124.0
32.8730 117.0
32.8860 118.0
32.8990 115.0
32.9120 114.0
32.9250 121.0
32.9380 133.0
32.9510 126.0
32.9640 124.0
32.9770 126.0
32.9900 117.0
33.0030 111.0
33.0160 121.0
33.0290 123.0
33.0420 104.0
33.0550 124.0
33.0680 133.0
33.0810 125.0
33.0940 111.0
33.1070 129.0
33.1200 122.0
33.1330 115.0
33.1460 115.0
33.1590 106.0
33.1720 124.0
33.1850 114.0
33.1980 128.0
33.2110 135.0
33.2240 131.0
33.2370 105.0
33.2500 114.0
33.2630 112.0
33.2760 130.0
33.2890 113.0
33.3020 120.0
33.3150 116.0
33.3280 130.0
33.3410 136.0
33.3540 148.0
33.3670 149.0
33.3800 130.0
33.3930 149.0
33.4060 169.0
33.4190 167.0
33.4320 158.0
33.4450 154.0
33.4580 177.0
33.4710 192.0
33.4840 195.0
33.4970 197.0
33.5100 216.0
33.5230 237.0
33.5360 265.0
33.5490 240.0
33.5620 297.0
33.5750 317.0
33.5880 330.0
33.6010 339.0
33.6140 359.0
33.6270 317.0
33.6400 320.0
33.6530 284.0
33.6660 281.0
33.6790 249.0
33.6920 256.0
33.7050 244.0
33.7180 210.0
33.7310 211.0
33.7440 201.0
33.7570 205.0
33.7700 197.0
33.7830 189.0
33.7960 182.0
33.8090 189.0
33.8220 171.0
33.8350 150.0
33.8480 131.0
33.8610 140.0
33.8740 160.0
33.8870 140.0
33.9000 132.0
33.9130 147.0
33.9260 144.0
33.9390 146.0
33.9520 157.0
33.9650 140.0
33.9780 133.0
33.9910 136.0
34.0040 127.0
34.0170 121.0
34.0300 125.0
34.0430 124.0
34.0560 130.0
34.0690 136.0
34.0820 135.0
34.0950 130.0
34.1080 128.0
34.1210 137.0
34.1340 130.0
34.1470 117.0
34.1600 117.0
34.1730 118.0
34.1860 126.0
34.1990 131.0
34.2120 129.0
34.2250 128.0
34.2380 117.0
34.2510 118.0
34.2640 137.0
34.2770 148.0
34.2900 140.0
34.3030 139.0
34.3160 144.0
34.3290 139.0
34.3420 133.0
34.3550 160.0
34.3680 168.0
34.3810 159.0
34.3940 170.0
34.4070 163.0
34.4200 174.0
34.4330 178.0
34.4460 171.0
34.4590 183.0
34.4720 210.0
34.4850 203.0
34.4980 222.0
34.5110 224.0
34.5240 226.0
34.5370 224.0
34.5500 207.0
34.5630 195.0
34.5760 197.0
34.5890 189.0
34.6020 202.0
34.6150 176.0
34.6280 186.0
34.6410 171.0
34.6540 171.0
34.6670 155.0
34.6800 156.0
34.6930 143.0
34.7060 135.0
34.7190 138.0
34.7320 116.0
34.7450 142.0
34.7580 144.0
34.7710 126.0
34.7840 118.0
34.7970 130.0
34.8100 124.0
34.8230 141.0
34.8360 123.0
34.8490 127.0
34.8620 121.0
34.8750 119.0
34.8880 116.0
34.9010 136.0
34.9140 130.0
34.9270 148.0
34.9400 116.0
34.9530 131.0
34.9660 126.0
34.9790 128.0
34.9920 128.0
35.0050 113.0
35.0180 136.0
35.0310 130.0
35.0440 128.0
35.0570 116.0
35.0700 117.0
35.0830 124.0
35.0960 123.0
35.1090 106.0
35.1220 125.0
35.1350 135.0
35.1480 124.0
35.1610 128.0
35.1740 128.0
35.1870 125.0
35.2000 117.0
35.2130 124.0
35.2260 121.0
35.2390 119.0
35.2520 122.0
35.2650 128.0
35.2780 113.0
35.2910 128.0
35.3040 140.0
35.3170 135.0
35.3300 128.0
35.3430 129.0
35.3560 129.0
35.3690 118.0
35.3820 117.0
35.3950 130.0
35.4080 128.0
35.4210 123.0
35.4340 123.0
35.4470 124.0
35.4600 128.0
35.4730 133.0
35.4860 131.0
35.4990 114.0
35.5120 110.0
35.5250 126.0
35.5380 137.0
35.5510 126.0
35.5640 139.0
35.5770 134.0
35.5900 131.0
35.6030 140.0
35.6160 120.0
35.6290 119.0
35.6420 125.0
35.6550 135.0
35.6680 146.0
35.6810 144.0
35.6940 132.0
35.7070 153.0
35.7200 135.0
35.7330 145.0
35.7460 151.0
35.7590 157.0
35.7720 165.0
35.7850 160.0
35.7980 139.0
35.8110 158.0
35.8240 163.0
35.8370 184.0
35.8500 195.0
35.8630 203.0
35.8760 187.0
35.8890 208.0
35.9020 201.0
35.9150 206.0
35.9280 204.0
35.9410 185.0
35.9540 183.0
35.9670 156.0
35.9800 171.0
35.9930 144.0
36.0060 142.0
36.0190 142.0
36.0320 148.0
36.0450 140.0
36.0580 150.0
36.0710 145.0
36.0840 112.0
36.0970 154.0
36.1100 142.0
36.1230 131.0
36.1360 129.0
36.1490 132.0
36.1620 147.0
36.1750 151.0
36.1880 156.0
36.2010 164.0
36.2140 175.0
36.2270 160.0
36.2400 152.0
36.2530 161.0
36.2660 182.0
36.2790 158.0
36.2920 190.0
36.3050 206.0
36.3180 213.0
36.3310 220.0
36.3440 216.0
36.3570 202.0
36.3700 191.0
36.3830 197.0
36.3960 179.0
36.4090 182.0
36.4220 199.0
36.4350 193.0
36.4480 178.0
36.4610 191.0
36.4740 189.0
36.4870 163.0
36.5000 142.0
36.5130 137.0
36.5260 142.0
36.5390 135.0
36.5520 141.0
36.5650 140.0
36.5780 145.0
36.5910 150.0
36.6040 148.0
36.6170 145.0
36.6300 157.0
36.6430 164.0
36.6560 159.0
36.6690 164.0
36.6820 159.0
36.6950 166.0
36.7080 173.0
36.7210 160.0
36.7340 169.0
36.7470 185.0
36.7600 182.0
36.7730 187.0
36.7860 203.0
36.7990 198.0
36.8120 193.0
36.8250 207.0
36.8380 205.0
36.8510 190.0
36.8640 183.0
36.8770 185.0
36.8900 191.0
36.9030 173.0
36.9160 167.0
36.9290 173.0
36.9420 188.0
36.9550 180.0
36.9680 163.0
36.9810 177.0
36.9940 179.0
37.0070 164.0
37.0200 148.0
37.0330 143.0
37.0460 135.0
37.0590 143.0
37.0720 153.0
37.0850 147.0
37.0980 142.0
37.1110 122.0
37.1240 117.0
37.1370 140.0
37.1500 154.0
37.1630 149.0
37.1760 127.0
37.1890 139.0
37.2020 135.0
37.2150 117.0
37.2280 135.0
37.2410 133.0
37.2540 123.0
37.2670 122.0
37.2800 133.0
37.2930 111.0
37.3060 107.0
37.3190 154.0
37.3320 124.0
37.3450 133.0
37.3580 120.0
37.3710 148.0
37.3840 120.0
37.3970 132.0
37.4100 129.0
37.4230 101.0
37.4360 116.0
37.4490 136.0
37.4620 112.0
37.4750 115.0
37.4880 114.0
37.5010 133.0
37.5140 119.0
37.5270 123.0
37.5400 120.0
37.5530 109.0
37.5660 129.0
37.5790 120.0
37.5920 124.0
37.6050 127.0
37.6180 103.0
37.6310 100.0
37.6440 113.0
37.6570 137.0
37.6700 123.0
37.6830 111.0
37.6960 124.0
37.7090 135.0
37.7220 124.0
37.7350 112.0
37.7480 117.0
37.7610 116.0
37.7740 122.0
37.7870 121.0
37.8000 120.0
37.8130 131.0
37.8260 127.0
37.8390 129.0
37.8520 133.0
37.8650 122.0
37.8780 109.0
37.8910 123.0
37.9040 119.0
37.9170 119.0
37.9300 127.0
37.9430 120.0
37.9560 116.0
37.9690 109.0
37.9820 106.0
37.9950 116.0
38.0080 116.0
38.0210 121.0
38.0340 133.0
38.0470 124.0
38.0600 112.0
38.0730 127.0
38.0860 143.0
38.0990 136.0
38.1120 136.0
38.1250 143.0
38.1380 134.0
38.1510 130.0
38.1640 139.0
38.1770 136.0
38.1900 141.0
38.2030 136.0
38.2160 145.0
38.2290 152.0
38.2420 147.0
38.2550 140.0
38.2680 151.0
38.2810 162.0
38.2940 177.0
38.3070 174.0
38.3200 164.0
38.3330 162.0
38.3460 169.0
38.3590 177.0
38.3720 170.0
38.3850 152.0
38.3980 163.0
38.4110 157.0
38.4240 166.0
38.4370 155.0
38.4500 145.0
38.4630 156.0
38.4760 154.0
38.4890 141.0
38.5020 117.0
38.5150 133.0
38.5280 147.0
38.5410 137.0
38.5540 140.0
38.5670 147.0
38.5800 127.0
38.5930 142.0
38.6060 148.0
38.6190 154.0
38.6320 160.0
38.6450 132.0
38.6580 165.0
38.6710 154.0
38.6840 195.0
38.6970 234.0
38.7100 258.0
38.7230 256.0
38.7360 259.0
38.7490 305.0
38.7620 283.0
38.7750 325.0
38.7880 317.0
38.8010 306.0
38.8140 283.0
38.8270 244.0
38.8400 225.0
38.8530 252.0
38.8660 226.0
38.8790 280.0
38.8920 296.0
38.9050 254.0
38.9180 241.0
38.9310 231.0
38.9440 203.0
38.9570 208.0
38.9700 239.0
38.9830 271.0
38.9960 310.0
39.0090 369.0
39.0220 453.0
39.0350 599.0
39.0480 662.0
39.0610 657.0
39.0740 688.0
39.0870 668.0
39.1000 672.0
39.1130 660.0
39.1260 639.0
39.1390 562.0
39.1520 513.0
39.1650 461.0
39.1780 416.0
39.1910 408.0
39.2040 395.0
39.2170 425.0
39.2300 504.0
39.2430 585.0
39.2560 608.0
39.2690 604.0
39.2820 567.0
39.2950 506.0
39.3080 422.0
39.3210 345.0
39.3340 300.0
39.3470 250.0
39.3600 232.0
39.3730 238.0
39.3860 229.0
39.3990 219.0
39.4120 215.0
39.4250 200.0
39.4380 188.0
39.4510 198.0
39.4640 192.0
39.4770 182.0
39.4900 161.0
39.5030 157.0
39.5160 158.0
39.5290 147.0
39.5420 141.0
39.5550 145.0
39.5680 134.0
39.5810 130.0
39.5940 111.0
39.6070 118.0
39.6200 124.0
39.6330 129.0
39.6460 125.0
39.6590 132.0
39.6720 146.0
39.6850 122.0
39.6980 135.0
39.7110 117.0
39.7240 126.0
39.7370 127.0
39.7500 136.0
39.7630 129.0
39.7760 138.0
39.7890 144.0
39.8020 146.0
39.8150 155.0
39.8280 147.0
39.8410 148.0
39.8540 140.0
39.8670 129.0
39.8800 135.0
39.8930 158.0
39.9060 140.0
39.9190 139.0
39.9320 139.0
39.9450 164.0
39.9580 118.0
39.9710 135.0
39.9840 131.0
39.9970 159.0
40.0100 132.0
40.0230 130.0
40.0360 106.0
40.0490 127.0
40.0620 122.0
40.0750 127.0
40.0880 132.0
40.1010 112.0
40.1140 122.0
40.1270 127.0
40.1400 106.0
40.1530 132.0
40.1660 123.0
40.1790 111.0
40.1920 125.0
40.2050 114.0
40.2180 112.0
40.2310 134.0
40.2440 114.0
40.2570 101.0
40.2700 102.0
40.2830 116.0
40.2960 109.0
40.3090 100.0
40.3220 112.0
40.3350 105.0
40.3480 109.0
40.3610 122.0
40.3740 110.0
40.3870 111.0
40.4000 114.0
40.4130 113.0
40.4260 118.0
40.4390 116.0
40.4520 115.0
40.4650 114.0
40.4780 114.0
40.4910 121.0
40.5040 125.0
40.5170 117.0
40.5300 113.0
40.5430 108.0
40.5560 122.0
40.5690 121.0
40.5820 115.0
40.5950 118.0
40.6080 122.0
40.6210 120.0
40.6340 112.0
40.6470 112.0
40.6600 124.0
40.6730 127.0
40.6860 111.0
40.6990 111.0
40.7120 121.0
40.7250 123.0
40.7380 120.0
40.7510 125.0
40.7640 134.0
40.7770 130.0
40.7900 126.0
40.8030 117.0
40.8160 123.0
40.8290 152.0
40.8420 143.0
40.8550 144.0
40.8680 165.0
40.8810 154.0
40.8940 141.0
40.9070 165.0
40.9200 174.0
40.9330 169.0
40.9460 194.0
40.9590 168.0
40.9720 178.0
40.9850 168.0
40.9980 168.0
41.0110 172.0
41.0240 165.0
41.0370 163.0
41.0500 174.0
41.0630 187.0
41.0760 182.0
41.0890 183.0
41.1020 164.0
41.1150 166.0
41.1280 143.0
41.1410 136.0
41.1540 159.0
41.1670 157.0
41.1800 164.0
41.1930 139.0
41.2060 119.0
41.2190 133.0
41.2320 138.0
41.2450 118.0
41.2580 140.0
41.2710 115.0
41.2840 118.0
41.2970 115.0
41.3100 124.0
41.3230 119.0
41.3360 110.0
41.3490 114.0
41.3620 104.0
41.3750 112.0
41.3880 119.0
41.4010 120.0
41.4140 112.0
41.4270 119.0
41.4400 113.0
41.4530 109.0
41.4660 124.0
41.4790 121.0
41.4920 111.0
41.5050 103.0
41.5180 113.0
41.5310 136.0
41.5440 113.0
41.5570 100.0
41.5700 99.0
41.5830 112.0
41.5960 118.0
41.6090 112.0
41.6220 115.0
41.6350 117.0
41.6480 112.0
41.6610 100.0
41.6740 99.0
41.6870 99.0
41.7000 116.0
41.7130 107.0
41.7260 109.0
41.7390 111.0
41.7520 113.0
41.7650 114.0
41.7780 116.0
41.7910 103.0
41.8040 101.0
41.8170 116.0
41.8300 121.0
41.8430 119.0
41.8560 119.0
41.8690 104.0
41.8820 102.0
41.8950 110.0
41.9080 110.0
41.9210 102.0
41.9340 104.0
41.9470 96.0
41.9600 89.0
41.9730 97.0
41.9860 97.0
41.9990 114.0
42.0120 120.0
42.0250 104.0
42.0380 111.0
42.0510 127.0
42.0640 117.0
42.0770 100.0
42.0900 110.0
42.1030 118.0
42.1160 126.0
42.1290 121.0
42.1420 130.0
42.1550 107.0
42.1680 104.0
42.1810 107.0
42.1940 91.0
42.2070 107.0
42.2200 113.0
42.2330 123.0
42.2460 105.0
42.2590 117.0
42.2720 122.0
42.2850 113.0
42.2980 113.0
42.3110 112.0
42.3240 112.0
42.3370 112.0
42.3500 93.0
42.3630 96.0
42.3760 106.0
42.3890 107.0
42.4020 104.0
42.4150 112.0
42.4280 98.0
42.4410 121.0
42.4540 110.0
42.4670 96.0
42.4800 106.0
42.4930 102.0
42.5060 104.0
42.5190 123.0
42.5320 121.0
42.5450 113.0
42.5580 123.0
42.5710 105.0
42.5840 109.0
42.5970 105.0
42.6100 106.0
42.6230 110.0
42.6360 108.0
42.6490 124.0
42.6620 113.0
42.6750 115.0
42.6880 100.0
42.7010 105.0
42.7140 126.0
42.7270 105.0
42.7400 114.0
42.7530 116.0
42.7660 111.0
42.7790 118.0
42.7920 113.0
42.8050 124.0
42.8180 128.0
42.8310 120.0
42.8440 128.0
42.8570 123.0
42.8700 128.0
42.8830 142.0
42.8960 130.0
42.9090 120.0
42.9220 128.0
42.9350 113.0
42.9480 116.0
42.9610 112.0
42.9740 106.0
42.9870 126.0
43.0000 134.0
43.0130 129.0
43.0260 122.0
43.0390 125.0
43.0520 112.0
43.0650 106.0
43.0780 104.0
43.0910 107.0
43.1040 100.0
43.1170 110.0
43.1300 118.0
43.1430 120.0
43.1560 120.0
43.1690 111.0
43.1820 118.0
43.1950 108.0
43.2080 97.0
43.2210 108.0
43.2340 111.0
43.2470 116.0
43.2600 116.0
43.2730 113.0
43.2860 111.0
43.2990 105.0
43.3120 102.0
43.3250 100.0
43.3380 103.0
43.3510 104.0
43.3640 105.0
43.3770 117.0
43.3900 111.0
43.4030 97.0
43.4160 113.0
43.4290 111.0
43.4420 104.0
43.4550 111.0
43.4680 109.0
43.4810 115.0
43.4940 117.0
43.5070 102.0
43.5200 106.0
43.5330 131.0
43.5460 122.0
43.5590 114.0
43.5720 105.0
43.5850 109.0
43.5980 105.0
43.6110 125.0
43.6240 107.0
43.6370 112.0
43.6500 120.0
43.6630 129.0
43.6760 133.0
43.6890 113.0
43.7020 123.0
43.7150 107.0
43.7280 112.0
43.7410 127.0
43.7540 124.0
43.7670 125.0
43.7800 123.0
43.7930 126.0
43.8060 123.0
43.8190 128.0
43.8320 131.0
43.8450 133.0
43.8580 123.0
43.8710 117.0
43.8840 106.0
43.8970 144.0
43.9100 107.0
43.9230 112.0
43.9360 118.0
43.9490 104.0
43.9620 120.0
43.9750 132.0
43.9880 138.0
44.0010 112.0
44.0140 120.0
44.0270 118.0
44.0400 120.0
44.0530 111.0
44.0660 109.0
44.0790 105.0
44.0920 106.0
44.1050 105.0
44.1180 113.0
44.1310 120.0
44.1440 116.0
44.1570 112.0
44.1700 135.0
44.1830 115.0
44.1960 114.0
44.2090 118.0
44.2220 114.0
44.2350 122.0
44.2480 112.0
44.2610 126.0
44.2740 136.0
44.2870 157.0
44.3000 157.0
44.3130 150.0
44.3260 172.0
44.3390 178.0
44.3520 167.0
44.3650 169.0
44.3780 163.0
44.3910 167.0
44.4040 165.0
44.4170 146.0
44.4300 152.0
44.4430 159.0
44.4560 152.0
44.4690 154.0
44.4820 160.0
44.4950 155.0
44.5080 144.0
44.5210 124.0
44.5340 112.0
44.5470 120.0
44.5600 110.0
44.5730 101.0
44.5860 106.0
44.5990 109.0
44.6120 103.0
44.6250 101.0
44.6380 106.0
44.6510 109.0
44.6640 112.0
44.6770 101.0
44.6900 105.0
44.7030 116.0
44.7160 107.0
44.7290 107.0
44.7420 113.0
44.7550 101.0
44.7680 104.0
44.7810 100.0
44.7940 102.0
44.8070 104.0
44.8200 103.0
44.8330 108.0
44.8460 103.0
44.8590 103.0
44.8720 92.0
44.8850 102.0
44.8980 109.0
44.9110 97.0
44.9240 99.0
44.9370 100.0
44.9500 126.0
44.9630 125.0
44.9760 126.0
44.9890 119.0
45.0020 122.0
45.0150 139.0
45.0280 118.0
45.0410 116.0
45.0540 112.0
45.0670 110.0
45.0800 123.0
45.0930 107.0
45.1060 127.0
45.1190 117.0
45.1320 103.0
45.1450 117.0
45.1580 111.0
45.1710 117.0
45.1840 95.0
45.1970 129.0
45.2100 137.0
45.2230 129.0
45.2360 136.0
45.2490 158.0
45.2620 154.0
45.2750 169.0
45.2880 147.0
45.3010 152.0
45.3140 158.0
45.3270 144.0
45.3400 148.0
45.3530 123.0
45.3660 132.0
45.3790 137.0
45.3920 132.0
45.4050 127.0
45.4180 142.0
45.4310 119.0
45.4440 126.0
45.4570 131.0
45.4700 126.0
45.4830 116.0
45.4960 99.0
45.5090 114.0
45.5220 97.0
45.5350 96.0
45.5480 106.0
45.5610 98.0
45.5740 101.0
45.5870 105.0
45.6000 115.0
45.6130 115.0
45.6260 108.0
45.6390 107.0
45.6520 104.0
45.6650 96.0
45.6780 112.0
45.6910 127.0
45.7040 121.0
45.7170 104.0
45.7300 100.0
45.7430 108.0
45.7560 112.0
45.7690 122.0
45.7820 108.0
45.7950 96.0
45.8080 101.0
45.8210 107.0
45.8340 103.0
45.8470 96.0
45.8600 106.0
45.8730 113.0
45.8860 104.0
45.8990 102.0
45.9120 116.0
45.9250 112.0
45.9380 99.0
45.9510 106.0
45.9640 121.0
45.9770 124.0
45.9900 113.0
46.0030 110.0
46.0160 110.0
46.0290 106.0
46.0420 98.0
46.0550 113.0
46.0680 119.0
46.0810 117.0
46.0940 118.0
46.1070 114.0
46.1200 104.0
46.1330 105.0
46.1460 109.0
46.1590 116.0
46.1720 108.0
46.1850 113.0
46.1980 131.0
46.2110 142.0
46.2240 123.0
46.2370 125.0
46.2500 116.0
46.2630 111.0
46.2760 126.0
46.2890 138.0
46.3020 141.0
46.3150 127.0
46.3280 116.0
46.3410 137.0
46.3540 140.0
46.3670 137.0
46.3800 133.0
46.3930 131.0
46.4060 146.0
46.4190 130.0
46.4320 150.0
46.4450 143.0
46.4580 137.0
46.4710 128.0
46.4840 136.0
46.4970 137.0
46.5100 122.0
46.5230 125.0
46.5360 154.0
46.5490 136.0
46.5620 174.0
46.5750 141.0
46.5880 160.0
46.6010 128.0
46.6140 120.0
46.6270 131.0
46.6400 131.0
46.6530 123.0
46.6660 138.0
46.6790 160.0
46.6920 182.0
46.7050 180.0
46.7180 189.0
46.7310 198.0
46.7440 190.0
46.7570 178.0
46.7700 181.0
46.7830 135.0
46.7960 123.0
46.8090 140.0
46.8220 133.0
46.8350 128.0
46.8480 119.0
46.8610 139.0
46.8740 124.0
46.8870 102.0
46.9000 120.0
46.9130 132.0
46.9260 119.0
46.9390 117.0
46.9520 122.0
46.9650 126.0
46.9780 124.0
46.9910 133.0
47.0040 133.0
47.0170 127.0
47.0300 141.0
47.0430 158.0
47.0560 146.0
47.0690 148.0
47.0820 156.0
47.0950 144.0
47.1080 142.0
47.1210 137.0
47.1340 137.0
47.1470 150.0
47.1600 150.0
47.1730 150.0
47.1860 148.0
47.1990 141.0
47.2120 145.0
47.2250 144.0
47.2380 141.0
47.2510 142.0
47.2640 133.0
47.2770 138.0
47.2900 152.0
47.3030 139.0
47.3160 125.0
47.3290 134.0
47.3420 139.0
47.3550 140.0
47.3680 142.0
47.3810 139.0
47.3940 135.0
47.4070 130.0
47.4200 128.0
47.4330 132.0
47.4460 125.0
47.4590 143.0
47.4720 163.0
47.4850 151.0
47.4980 131.0
47.5110 135.0
47.5240 163.0
47.5370 164.0
47.5500 149.0
47.5630 147.0
47.5760 126.0
47.5890 129.0
47.6020 131.0
47.6150 118.0
47.6280 120.0
47.6410 127.0
47.6540 105.0
47.6670 110.0
47.6800 119.0
47.6930 117.0
47.7060 113.0
47.7190 112.0
47.7320 115.0
47.7450 114.0
47.7580 108.0
47.7710 118.0
47.7840 113.0
47.7970 107.0
47.8100 125.0
47.8230 103.0
47.8360 117.0
47.8490 109.0
47.8620 110.0
47.8750 108.0
47.8880 117.0
47.9010 105.0
47.9140 99.0
47.9270 106.0
47.9400 125.0
47.9530 122.0
47.9660 102.0
47.9790 112.0
47.9920 105.0
48.0050 125.0
48.0180 106.0
48.0310 108.0
48.0440 99.0
48.0570 87.0
48.0700 128.0
48.0830 107.0
48.0960 109.0
48.1090 122.0
48.1220 117.0
48.1350 117.0
48.1480 115.0
48.1610 115.0
48.1740 117.0
48.1870 120.0
48.2000 117.0
48.2130 119.0
48.2260 114.0
48.2390 111.0
48.2520 115.0
48.2650 117.0
48.2780 96.0
48.2910 109.0
48.3040 102.0
48.3170 107.0
48.3300 105.0
48.3430 110.0
48.3560 130.0
48.3690 126.0
48.3820 111.0
48.3950 110.0
48.4080 107.0
48.4210 110.0
48.4340 114.0
48.4470 123.0
48.4600 126.0
48.4730 117.0
48.4860 123.0
48.4990 118.0
48.5120 107.0
48.5250 113.0
48.5380 114.0
48.5510 102.0
48.5640 104.0
48.5770 112.0
48.5900 109.0
48.6030 110.0
48.6160 121.0
48.6290 141.0
48.6420 140.0
48.6550 130.0
48.6680 133.0
48.6810 141.0
48.6940 140.0
48.7070 153.0
48.7200 165.0
48.7330 160.0
48.7460 174.0
48.7590 189.0
48.7720 218.0
48.7850 223.0
48.7980 218.0
48.8110 224.0
48.8240 216.0
48.8370 194.0
48.8500 207.0
48.8630 197.0
48.8760 176.0
48.8890 199.0
48.9020 199.0
48.9150 189.0
48.9280 189.0
48.9410 190.0
48.9540 181.0
48.9670 146.0
48.9800 154.0
48.9930 146.0
49.0060 138.0
49.0190 134.0
49.0320 130.0
49.0450 128.0
49.0580 148.0
49.0710 153.0
49.0840 151.0
49.0970 141.0
49.1100 172.0
49.1230 141.0
49.1360 155.0
49.1490 170.0
49.1620 152.0
49.1750 151.0
49.1880 160.0
49.2010 125.0
49.2140 150.0
49.2270 149.0
49.2400 155.0
49.2530 147.0
49.2660 142.0
49.2790 137.0
49.2920 139.0
49.3050 162.0
49.3180 153.0
49.3310 121.0
49.3440 163.0
49.3570 134.0
49.3700 141.0
49.3830 157.0
49.3960 180.0
49.4090 168.0
49.4220 166.0
49.4350 176.0
49.4480 160.0
49.4610 142.0
49.4740 158.0
49.4870 168.0
49.5000 173.0
49.5130 178.0
49.5260 153.0
49.5390 163.0
49.5520 180.0
49.5650 185.0
49.5780 159.0
49.5910 173.0
49.6040 169.0
49.6170 167.0
49.6300 187.0
49.6430 185.0
49.6560 185.0
49.6690 185.0
49.6820 172.0
49.6950 158.0
49.7080 170.0
49.7210 183.0
49.7340 154.0
49.7470 138.0
49.7600 140.0
49.7730 130.0
49.7860 135.0
49.7990 131.0
49.8120 126.0
49.8250 133.0
49.8380 130.0
49.8510 121.0
49.8640 120.0
49.8770 120.0
49.8900 115.0
49.9030 118.0
49.9160 108.0
49.9290 106.0
49.9420 116.0
49.9550 110.0
49.9680 109.0
49.9810 110.0
49.9940 120.0
50.0070 113.0
50.0200 113.0
50.0330 101.0
50.0460 100.0
50.0590 110.0
50.0720 110.0
50.0850 106.0
50.0980 122.0
50.1110 110.0
50.1240 115.0
50.1370 117.0
50.1500 116.0
50.1630 116.0
50.1760 112.0
50.1890 106.0
50.2020 102.0
50.2150 112.0
50.2280 103.0
50.2410 109.0
50.2540 107.0
50.2670 106.0
50.2800 104.0
50.2930 118.0
50.3060 110.0
50.3190 104.0
50.3320 108.0
50.3450 119.0
50.3580 129.0
50.3710 116.0
50.3840 133.0
50.3970 117.0
50.4100 107.0
50.4230 115.0
50.4360 108.0
50.4490 101.0
50.4620 97.0
50.4750 131.0
50.4880 129.0
50.5010 124.0
50.5140 115.0
50.5270 111.0
50.5400 95.0
50.5530 102.0
50.5660 114.0
50.5790 101.0
50.5920 98.0
50.6050 93.0
50.6180 129.0
50.6310 109.0
50.6440 90.0
50.6570 112.0
50.6700 117.0
50.6830 110.0
50.6960 115.0
50.7090 112.0
50.7220 104.0
50.7350 99.0
50.7480 103.0
50.7610 119.0
50.7740 139.0
50.7870 111.0
50.8000 97.0
50.8130 110.0
50.8260 115.0
50.8390 124.0
50.8520 108.0
50.8650 101.0
50.8780 109.0
50.8910 96.0
50.9040 113.0
50.9170 107.0
50.9300 108.0
50.9430 126.0
50.9560 121.0
50.9690 105.0
50.9820 109.0
50.9950 113.0
51.0080 114.0
51.0210 114.0
51.0340 115.0
51.0470 111.0
51.0600 110.0
51.0730 119.0
51.0860 113.0
51.0990 111.0
51.1120 112.0
51.1250 105.0
51.1380 115.0
51.1510 123.0
51.1640 117.0
51.1770 121.0
51.1900 128.0
51.2030 113.0
51.2160 103.0
51.2290 114.0
51.2420 116.0
51.2550 116.0
51.2680 127.0
51.2810 143.0
51.2940 152.0
51.3070 138.0
51.3200 144.0
51.3330 146.0
51.3460 139.0
51.3590 159.0
51.3720 180.0
51.3850 178.0
51.3980 186.0
51.4110 205.0
51.4240 216.0
51.4370 229.0
51.4500 255.0
51.4630 273.0
51.4760 251.0
51.4890 261.0
51.5020 278.0
51.5150 294.0
51.5280 283.0
51.5410 254.0
51.5540 237.0
51.5670 233.0
51.5800 225.0
51.5930 221.0
51.6060 207.0
51.6190 173.0
51.6320 183.0
51.6450 185.0
51.6580 172.0
51.6710 160.0
51.6840 163.0
51.6970 167.0
51.7100 124.0
51.7230 134.0
51.7360 130.0
51.7490 143.0
51.7620 135.0
51.7750 125.0
51.7880 122.0
51.8010 127.0
51.8140 122.0
51.8270 121.0
51.8400 134.0
51.8530 131.0
51.8660 129.0
51.8790 133.0
51.8920 139.0
51.9050 107.0
51.9180 120.0
51.9310 130.0
51.9440 154.0
51.9570 153.0
51.9700 166.0
51.9830 172.0
51.9960 194.0
52.0090 188.0
52.0220 199.0
52.0350 219.0
52.0480 202.0
52.0610 239.0
52.0740 242.0
52.0870 242.0
52.1000 213.0
52.1130 218.0
52.1260 219.0
52.1390 210.0
52.1520 198.0
52.1650 183.0
52.1780 153.0
52.1910 156.0
52.2040 145.0
52.2170 123.0
52.2300 133.0
52.2430 129.0
52.2560 119.0
52.2690 119.0
52.2820 129.0
52.2950 124.0
52.3080 114.0
52.3210 112.0
52.3340 122.0
52.3470 126.0
52.3600 124.0
52.3730 122.0
52.3860 118.0
52.3990 118.0
52.4120 118.0
52.4250 120.0
52.4380 120.0
52.4510 120.0
52.4640 124.0
52.4770 124.0
52.4900 123.0
52.5030 123.0
52.5160 121.0
52.5290 123.0
52.5420 132.0
52.5550 143.0
52.5680 149.0
52.5810 152.0
52.5940 135.0
52.6070 134.0
52.6200 139.0
52.6330 127.0
52.6460 132.0
52.6590 136.0
52.6720 139.0
52.6850 158.0
52.6980 130.0
52.7110 122.0
52.7240 124.0
52.7370 119.0
52.7500 125.0
52.7630 142.0
52.7760 130.0
52.7890 111.0
52.8020 127.0
52.8150 135.0
52.8280 135.0
52.8410 111.0
52.8540 125.0
52.8670 112.0
52.8800 123.0
52.8930 124.0
52.9060 116.0
52.9190 113.0
52.9320 112.0
52.9450 113.0
52.9580 128.0
52.9710 111.0
52.9840 113.0
52.9970 109.0
53.0100 119.0
53.0230 101.0
53.0360 110.0
53.0490 121.0
53.0620 126.0
53.0750 96.0
53.0880 104.0
53.1010 87.0
53.1140 119.0
53.1270 109.0
53.1400 107.0
53.1530 83.0
53.1660 93.0
53.1790 93.0
53.1920 115.0
53.2050 104.0
53.2180 106.0
53.2310 102.0
53.2440 110.0
53.2570 101.0
53.2700 107.0
53.2830 107.0
53.2960 80.0
53.3090 100.0
53.3220 101.0
53.3350 94.0
53.3480 100.0
53.3610 104.0
53.3740 125.0
53.3870 110.0
53.4000 113.0
53.4130 109.0
53.4260 118.0
53.4390 101.0
53.4520 114.0
53.4650 117.0
53.4780 111.0
53.4910 122.0
53.5040 118.0
53.5170 116.0
53.5300 127.0
53.5430 135.0
53.5560 145.0
53.5690 141.0
53.5820 143.0
53.5950 143.0
53.6080 159.0
53.6210 159.0
53.6340 161.0
53.6470 165.0
53.6600 164.0
53.6730 177.0
53.6860 196.0
53.6990 202.0
53.7120 214.0
53.7250 225.0
53.7380 229.0
53.7510 253.0
53.7640 260.0
53.7770 236.0
53.7900 228.0
53.8030 234.0
53.8160 228.0
53.8290 212.0
53.8420 216.0
53.8550 221.0
53.8680 215.0
53.8810 208.0
53.8940 181.0
53.9070 163.0
53.9200 177.0
53.9330 187.0
53.9460 191.0
53.9590 188.0
53.9720 191.0
53.9850 181.0
53.9980 184.0
54.0110 175.0
54.0240 149.0
54.0370 142.0
54.0500 149.0
54.0630 151.0
54.0760 118.0
54.0890 140.0
54.1020 127.0
54.1150 129.0
54.1280 156.0
54.1410 138.0
54.1540 149.0
54.1670 137.0
54.1800 161.0
54.1930 157.0
54.2060 131.0
54.2190 151.0
54.2320 137.0
54.2450 142.0
54.2580 146.0
54.2710 132.0
54.2840 120.0
54.2970 122.0
54.3100 121.0
54.3230 108.0
54.3360 112.0
54.3490 106.0
54.3620 122.0
54.3750 117.0
54.3880 113.0
54.4010 122.0
54.4140 125.0
54.4270 97.0
54.4400 122.0
54.4530 100.0
54.4660 105.0
54.4790 107.0
54.4920 120.0
54.5050 130.0
54.5180 118.0
54.5310 117.0
54.5440 114.0
54.5570 115.0
54.5700 126.0
54.5830 119.0
54.5960 115.0
54.6090 130.0
54.6220 127.0
54.6350 125.0
54.6480 123.0
54.6610 93.0
54.6740 103.0
54.6870 119.0
54.7000 106.0
54.7130 98.0
54.7260 116.0
54.7390 117.0
54.7520 103.0
54.7650 108.0
54.7780 104.0
54.7910 110.0
54.8040 119.0
54.8170 102.0
54.8300 120.0
54.8430 109.0
54.8560 105.0
54.8690 102.0
54.8820 111.0
54.8950 109.0
54.9080 101.0
54.9210 109.0
54.9340 119.0
54.9470 107.0
54.9600 104.0
54.9730 121.0
54.9860 110.0
54.9990 103.0
55.0120 107.0
55.0250 106.0
55.0380 114.0
55.0510 108.0
55.0640 109.0
55.0770 117.0
55.0900 110.0
55.1030 108.0
55.1160 105.0
55.1290 105.0
55.1420 106.0
55.1550 99.0
55.1680 103.0
55.1810 102.0
55.1940 103.0
55.2070 114.0
55.2200 121.0
55.2330 128.0
55.2460 127.0
55.2590 124.0
55.2720 110.0
55.2850 101.0
55.2980 108.0
55.3110 114.0
55.3240 112.0
55.3370 109.0
55.3500 101.0
55.3630 104.0
55.3760 99.0
55.3890 96.0
55.4020 96.0
55.4150 100.0
55.4280 99.0
55.4410 107.0
55.4540 115.0
55.4670 108.0
55.4800 103.0
55.4930 116.0
55.5060 97.0
55.5190 112.0
55.5320 106.0
55.5450 119.0
55.5580 114.0
55.5710 105.0
55.5840 125.0
55.5970 107.0
55.6100 102.0
55.6230 111.0
55.6360 106.0
55.6490 96.0
55.6620 105.0
55.6750 97.0
55.6880 104.0
55.7010 108.0
55.7140 99.0
55.7270 105.0
55.7400 112.0
55.7530 112.0
55.7660 103.0
55.7790 94.0
55.7920 125.0
55.8050 103.0
55.8180 101.0
55.8310 114.0
55.8440 105.0
55.8570 99.0
55.8700 93.0
55.8830 120.0
55.8960 89.0
55.9090 90.0
55.9220 91.0
55.9350 98.0
55.9480 100.0
55.9610 114.0
55.9740 121.0
55.9870 108.0
56.0000 97.0
56.0130 90.0
56.0260 106.0
56.0390 118.0
56.0520 108.0
56.0650 111.0
56.0780 102.0
56.0910 102.0
56.1040 103.0
56.1170 114.0
56.1300 110.0
56.1430 115.0
56.1560 118.0
56.1690 103.0
56.1820 116.0
56.1950 99.0
56.2080 95.0
56.2210 102.0
56.2340 105.0
56.2470 101.0
56.2600 107.0
56.2730 108.0
56.2860 95.0
56.2990 103.0
56.3120 107.0
56.3250 104.0
56.3380 112.0
56.3510 111.0
56.3640 111.0
56.3770 109.0
56.3900 101.0
56.4030 101.0
56.4160 109.0
56.4290 106.0
56.4420 108.0
56.4550 115.0
56.4680 107.0
56.4810 113.0
56.4940 113.0
56.5070 105.0
56.5200 108.0
56.5330 124.0
56.5460 127.0
56.5590 123.0
56.5720 125.0
56.5850 119.0
56.5980 131.0
56.6110 138.0
56.6240 147.0
56.6370 118.0
56.6500 125.0
56.6630 140.0
56.6760 125.0
56.6890 123.0
56.7020 124.0
56.7150 118.0
56.7280 105.0
56.7410 108.0
56.7540 109.0
56.7670 109.0
56.7800 111.0
56.7930 121.0
56.8060 137.0
56.8190 103.0
56.8320 112.0
56.8450 107.0
56.8580 98.0
56.8710 95.0
56.8840 99.0
56.8970 100.0
56.9100 101.0
56.9230 112.0
56.9360 101.0
56.9490 107.0
56.9620 126.0
56.9750 96.0
56.9880 122.0
57.0010 109.0
57.0140 115.0
57.0270 104.0
57.0400 97.0
57.0530 106.0
57.0660 86.0
57.0790 103.0
57.0920 110.0
57.1050 105.0
57.1180 101.0
57.1310 108.0
57.1440 125.0
57.1570 119.0
57.1700 103.0
57.1830 104.0
57.1960 118.0
57.2090 120.0
57.2220 111.0
57.2350 100.0
57.2480 106.0
57.2610 130.0
57.2740 125.0
57.2870 128.0
57.3000 94.0
57.3130 108.0
57.3260 105.0
57.3390 105.0
57.3520 114.0
57.3650 109.0
57.3780 111.0
57.3910 105.0
57.4040 98.0
57.4170 102.0
57.4300 97.0
57.4430 94.0
57.4560 93.0
57.4690 103.0
57.4820 105.0
57.4950 93.0
57.5080 96.0
57.5210 102.0
57.5340 101.0
57.5470 95.0
57.5600 92.0
57.5730 97.0
57.5860 101.0
57.5990 112.0
57.6120 103.0
57.6250 93.0
57.6380 94.0
57.6510 94.0
57.6640 95.0
57.6770 92.0
57.6900 99.0
57.7030 113.0
57.7160 107.0
57.7290 96.0
57.7420 92.0
57.7550 92.0
57.7680 97.0
57.7810 100.0
57.7940 100.0
57.8070 96.0
57.8200 97.0
57.8330 94.0
57.8460 94.0
57.8590 101.0
57.8720 100.0
57.8850 97.0
57.8980 100.0
57.9110 117.0
57.9240 103.0
57.9370 89.0
57.9500 94.0
57.9630 112.0
57.9760 105.0
57.9890 98.0
58.0020 116.0
58.0150 109.0
58.0280 119.0
58.0410 114.0
58.0540 101.0
58.0670 99.0
58.0800 99.0
58.0930 106.0
58.1060 114.0
58.1190 101.0
58.1320 109.0
58.1450 109.0
58.1580 96.0
58.1710 105.0
58.1840 102.0
58.1970 101.0
58.2100 97.0
58.2230 102.0
58.2360 90.0
58.2490 112.0
58.2620 116.0
58.2750 86.0
58.2880 102.0
58.3010 115.0
58.3140 100.0
58.3270 90.0
58.3400 95.0
58.3530 98.0
58.3660 98.0
58.3790 105.0
58.3920 121.0
58.4050 89.0
58.4180 96.0
58.4310 90.0
58.4440 98.0
58.4570 101.0
58.4700 103.0
58.4830 99.0
58.4960 95.0
58.5090 95.0
58.5220 114.0
58.5350 102.0
58.5480 106.0
58.5610 114.0
58.5740 99.0
58.5870 89.0
58.6000 112.0
58.6130 117.0
58.6260 115.0
58.6390 103.0
58.6520 111.0
58.6650 110.0
58.6780 100.0
58.6910 105.0
58.7040 99.0
58.7170 104.0
58.7300 108.0
58.7430 105.0
58.7560 93.0
58.7690 99.0
58.7820 120.0
58.7950 121.0
58.8080 107.0
58.8210 104.0
58.8340 111.0
58.8470 118.0
58.8600 106.0
58.8730 111.0
58.8860 126.0
58.8990 111.0
58.9120 104.0
58.9250 97.0
58.9380 98.0
58.9510 105.0
58.9640 95.0
58.9770 99.0
58.9900 108.0
59.0030 101.0
59.0160 94.0
59.0290 99.0
59.0420 102.0
59.0550 96.0
59.0680 101.0
59.0810 111.0
59.0940 114.0
59.1070 101.0
59.1200 84.0
59.1330 90.0
59.1460 89.0
59.1590 88.0
59.1720 106.0
59.1850 110.0
59.1980 102.0
59.2110 105.0
59.2240 105.0
59.2370 92.0
59.2500 93.0
59.2630 100.0
59.2760 99.0
59.2890 106.0
59.3020 107.0
59.3150 97.0
59.3280 99.0
59.3410 95.0
59.3540 103.0
59.3670 97.0
59.3800 93.0
59.3930 102.0
59.4060 112.0
59.4190 110.0
59.4320 102.0
59.4450 115.0
59.4580 96.0
59.4710 104.0
59.4840 86.0
59.4970 95.0
59.5100 93.0
59.5230 104.0
59.5360 87.0
59.5490 105.0
59.5620 117.0
59.5750 94.0
59.5880 97.0
59.6010 109.0
59.6140 94.0
59.6270 103.0
59.6400 82.0
59.6530 114.0
59.6660 87.0
59.6790 101.0
59.6920 100.0
59.7050 84.0
59.7180 94.0
59.7310 115.0
59.7440 90.0
59.7570 75.0
59.7700 97.0
59.7830 97.0
59.7960 89.0
59.8090 84.0
59.8220 101.0
59.8350 98.0
59.8480 94.0
59.8610 96.0
59.8740 93.0
59.8870 104.0
59.9000 108.0
59.9130 100.0
59.9260 110.0
59.9390 107.0
59.9520 100.0
59.9650 101.0
59.9780 112.0
59.9910 116.0
